jMRUI Data Textfile

Filename: 5ALA.txt

PointsInDataset: 32768     
DatasetsInFile: 1         
SamplingInterval: 3.3333E-2 
ZeroOrderPhase: 0E0       
BeginTime: 0E0       
TransmitterFrequency: 2.8994E8  
MagneticField: 6.81E0    
TypeOfNucleus: 0E0       
NameOfPatient: 
DateOfExperiment: 
Spectrometer: 
AdditionalInfo: 
SignalNames: 5ALA;


Signal and FFT
sig(real)	sig(imag)	fft(real)	fft(imag)
Signal 1 out of 1 in file
2.9053E-4	-4.4147E-11	7.0191E-8	7.3818E-6
2.8875E-4	-2.9354E-5	7.033E-8	7.3959E-6
2.8356E-4	-5.8272E-5	7.0458E-8	7.4097E-6
2.7504E-4	-8.6336E-5	7.0421E-8	7.4236E-6
2.6333E-4	-1.1314E-4	7.0365E-8	7.4376E-6
2.486E-4	-1.3831E-4	7.0359E-8	7.4514E-6
2.3109E-4	-1.6148E-4	7.0149E-8	7.4654E-6
2.1108E-4	-1.8234E-4	7.0033E-8	7.4796E-6
1.8886E-4	-2.0058E-4	7.0304E-8	7.4937E-6
1.648E-4	-2.1598E-4	7.0345E-8	7.5075E-6
1.3925E-4	-2.2832E-4	7.0242E-8	7.5214E-6
1.1262E-4	-2.3746E-4	7.0188E-8	7.5354E-6
8.5314E-5	-2.4331E-4	7.0132E-8	7.5494E-6
5.7745E-5	-2.458E-4	7.0147E-8	7.5635E-6
3.0336E-5	-2.4495E-4	7.0267E-8	7.5775E-6
3.5001E-6	-2.4082E-4	7.0355E-8	7.5915E-6
-2.2359E-5	-2.3352E-4	7.0385E-8	7.6054E-6
-4.6857E-5	-2.232E-4	7.0387E-8	7.6192E-6
-6.9634E-5	-2.1009E-4	7.0262E-8	7.6331E-6
-9.036E-5	-1.9442E-4	7.0154E-8	7.6472E-6
-1.0874E-4	-1.7648E-4	7.0234E-8	7.6613E-6
-1.2451E-4	-1.5661E-4	7.0299E-8	7.6751E-6
-1.3748E-4	-1.3516E-4	7.0045E-8	7.689E-6
-1.4746E-4	-1.1249E-4	6.9978E-8	7.7033E-6
-1.5435E-4	-8.9011E-5	7.015E-8	7.7173E-6
-1.5809E-4	-6.5119E-5	7.0301E-8	7.7313E-6
-1.5866E-4	-4.1221E-5	7.0427E-8	7.7451E-6
-1.561E-4	-1.7722E-5	7.0332E-8	7.7589E-6
-1.505E-4	4.983E-6	7.0251E-8	7.7729E-6
-1.4201E-4	2.6516E-5	7.0058E-8	7.7869E-6
-1.308E-4	4.652E-5	7.0029E-8	7.8011E-6
-1.1712E-4	6.4667E-5	7.0193E-8	7.8151E-6
-1.0122E-4	8.066E-5	7.0286E-8	7.829E-6
-8.3418E-5	9.4241E-5	7.0268E-8	7.8429E-6
-6.4044E-5	1.0519E-4	7.0228E-8	7.8569E-6
-4.3454E-5	1.1335E-4	7.0237E-8	7.8708E-6
-2.2025E-5	1.1857E-4	7.0103E-8	7.8847E-6
-1.4346E-7	1.208E-4	7.0077E-8	7.8988E-6
2.1798E-5	1.2E-4	7.0134E-8	7.9128E-6
4.3407E-5	1.1621E-4	7.0225E-8	7.9268E-6
6.4301E-5	1.0949E-4	7.0149E-8	7.9406E-6
8.411E-5	9.9971E-5	7.0014E-8	7.9547E-6
1.0248E-4	8.7821E-5	6.9998E-8	7.9688E-6
1.191E-4	7.3252E-5	6.9979E-8	7.9828E-6
1.3366E-4	5.6515E-5	7.0042E-8	7.9969E-6
1.4591E-4	3.7894E-5	7.0203E-8	8.0109E-6
1.5562E-4	1.7707E-5	7.0273E-8	8.0248E-6
1.6263E-4	-3.7086E-6	7.0225E-8	8.0386E-6
1.668E-4	-2.5993E-5	7.0174E-8	8.0527E-6
1.6804E-4	-4.8776E-5	7.0248E-8	8.0667E-6
1.6632E-4	-7.1679E-5	7.03E-8	8.0805E-6
1.6166E-4	-9.4325E-5	7.0188E-8	8.0945E-6
1.541E-4	-1.1634E-4	7.0157E-8	8.1085E-6
1.4376E-4	-1.3737E-4	7.0116E-8	8.1225E-6
1.3079E-4	-1.5706E-4	7.0086E-8	8.1366E-6
1.1538E-4	-1.751E-4	7.024E-8	8.1505E-6
9.7766E-5	-1.9119E-4	7.0213E-8	8.1644E-6
7.8206E-5	-2.0508E-4	7.0268E-8	8.1784E-6
5.6998E-5	-2.1655E-4	7.0167E-8	8.1923E-6
3.4461E-5	-2.254E-4	7.0111E-8	8.2063E-6
1.0935E-5	-2.3151E-4	7.0205E-8	8.2203E-6
-1.3229E-5	-2.3478E-4	7.0148E-8	8.2341E-6
-3.7671E-5	-2.3516E-4	7.003E-8	8.2481E-6
-6.2029E-5	-2.3263E-4	6.9853E-8	8.2621E-6
-8.5946E-5	-2.2726E-4	6.975E-8	8.2763E-6
-1.0907E-4	-2.1911E-4	6.9889E-8	8.2905E-6
-1.3108E-4	-2.0833E-4	7.006E-8	8.3044E-6
-1.5165E-4	-1.9508E-4	7.0144E-8	8.3183E-6
-1.7051E-4	-1.7957E-4	7.0126E-8	8.3322E-6
-1.8738E-4	-1.6203E-4	6.995E-8	8.3461E-6
-2.0206E-4	-1.4274E-4	6.9814E-8	8.3602E-6
-2.1436E-4	-1.2199E-4	6.987E-8	8.3744E-6
-2.2412E-4	-1.0009E-4	7.0046E-8	8.3884E-6
-2.3125E-4	-7.7365E-5	7.0173E-8	8.4024E-6
-2.3569E-4	-5.4154E-5	7.0274E-8	8.4162E-6
-2.374E-4	-3.0793E-5	7.0223E-8	8.43E-6
-2.3642E-4	-7.6178E-6	6.9976E-8	8.4439E-6
-2.3281E-4	1.5045E-5	6.983E-8	8.458E-6
-2.2668E-4	3.6882E-5	6.9782E-8	8.4722E-6
-2.1817E-4	5.7596E-5	6.9938E-8	8.4863E-6
-2.0745E-4	7.6915E-5	7.0129E-8	8.5002E-6
-1.9475E-4	9.4592E-5	7.012E-8	8.5141E-6
-1.8029E-4	1.1041E-4	6.9988E-8	8.5281E-6
-1.6434E-4	1.2419E-4	7.0053E-8	8.5421E-6
-1.4718E-4	1.3579E-4	7.0008E-8	8.556E-6
-1.291E-4	1.4508E-4	6.9937E-8	8.57E-6
-1.1041E-4	1.5202E-4	6.9931E-8	8.584E-6
-9.1402E-5	1.5656E-4	6.9909E-8	8.5981E-6
-7.2392E-5	1.5872E-4	6.9925E-8	8.6121E-6
-5.3677E-5	1.5854E-4	7.0063E-8	8.6262E-6
-3.5541E-5	1.5611E-4	7.0198E-8	8.64E-6
-1.8258E-5	1.5155E-4	7.0092E-8	8.6538E-6
-2.0759E-6	1.4502E-4	6.9899E-8	8.6679E-6
1.2777E-5	1.3668E-4	6.9886E-8	8.682E-6
2.61E-5	1.2676E-4	6.9941E-8	8.6961E-6
3.7726E-5	1.1548E-4	7.0091E-8	8.7102E-6
4.7518E-5	1.0308E-4	7.0243E-8	8.7241E-6
5.5372E-5	8.9836E-5	7.0292E-8	8.7379E-6
6.1221E-5	7.6005E-5	7.0185E-8	8.7517E-6
6.5034E-5	6.186E-5	6.9956E-8	8.7656E-6
6.6814E-5	4.7673E-5	6.9811E-8	8.7798E-6
6.66E-5	3.3708E-5	6.9907E-8	8.794E-6
6.4465E-5	2.0222E-5	7.0061E-8	8.808E-6
6.0512E-5	7.4545E-6	7.0176E-8	8.8219E-6
5.4874E-5	-4.3709E-6	7.0167E-8	8.8358E-6
4.771E-5	-1.5053E-5	7.0082E-8	8.8498E-6
3.9203E-5	-2.4414E-5	7.009E-8	8.8638E-6
2.9555E-5	-3.2305E-5	7.0067E-8	8.8777E-6
1.8983E-5	-3.8605E-5	6.9988E-8	8.8918E-6
7.7154E-6	-4.3223E-5	7.0055E-8	8.9058E-6
-4.0107E-6	-4.61E-5	7.0168E-8	8.9198E-6
-1.5956E-5	-4.7209E-5	7.0188E-8	8.9337E-6
-2.7883E-5	-4.6556E-5	7.0116E-8	8.9476E-6
-3.9558E-5	-4.4175E-5	7.0147E-8	8.9616E-6
-5.0757E-5	-4.0132E-5	7.0122E-8	8.9755E-6
-6.1269E-5	-3.452E-5	7.0013E-8	8.9895E-6
-7.09E-5	-2.7458E-5	6.9931E-8	9.0035E-6
-7.9473E-5	-1.9087E-5	6.9945E-8	9.0175E-6
-8.6837E-5	-9.5699E-6	6.9887E-8	9.0315E-6
-9.286E-5	9.1477E-7	6.9783E-8	9.0455E-6
-9.7441E-5	1.2175E-5	6.9756E-8	9.0597E-6
-1.005E-4	2.4009E-5	6.9877E-8	9.0737E-6
-1.0199E-4	3.621E-5	6.9797E-8	9.0877E-6
-1.019E-4	4.8568E-5	6.9887E-8	9.1018E-6
-1.0022E-4	6.0874E-5	7.001E-8	9.1157E-6
-9.6997E-5	7.2926E-5	7.004E-8	9.1297E-6
-9.2286E-5	8.453E-5	7.0031E-8	9.1435E-6
-8.6172E-5	9.5504E-5	6.9896E-8	9.1575E-6
-7.876E-5	1.0568E-4	6.9906E-8	9.1716E-6
-7.0177E-5	1.1491E-4	6.9896E-8	9.1856E-6
-6.0564E-5	1.2306E-4	6.9985E-8	9.1997E-6
-5.0078E-5	1.3002E-4	7.0061E-8	9.2136E-6
-3.8885E-5	1.3572E-4	7.0059E-8	9.2275E-6
-2.7159E-5	1.4007E-4	7.0048E-8	9.2414E-6
-1.5079E-5	1.4306E-4	6.9873E-8	9.2553E-6
-2.8234E-6	1.4465E-4	6.9774E-8	9.2693E-6
9.431E-6	1.4487E-4	6.9657E-8	9.2834E-6
2.1514E-5	1.4375E-4	6.9627E-8	9.2976E-6
3.3262E-5	1.4133E-4	6.9686E-8	9.3116E-6
4.4525E-5	1.377E-4	6.9655E-8	9.3256E-6
5.5165E-5	1.3295E-4	6.9718E-8	9.3397E-6
6.5062E-5	1.2718E-4	6.9814E-8	9.3537E-6
7.411E-5	1.2051E-4	6.9811E-8	9.3677E-6
8.2224E-5	1.1309E-4	6.9841E-8	9.3818E-6
8.934E-5	1.0503E-4	6.9942E-8	9.3958E-6
9.5412E-5	9.65E-5	7.0069E-8	9.4097E-6
1.0042E-4	8.7632E-5	6.9983E-8	9.4235E-6
1.0435E-4	7.8573E-5	6.9892E-8	9.4376E-6
1.0722E-4	6.9464E-5	6.9935E-8	9.4515E-6
1.0907E-4	6.044E-5	6.9798E-8	9.4655E-6
1.0995E-4	5.1625E-5	6.9801E-8	9.4796E-6
1.0993E-4	4.3135E-5	6.9839E-8	9.4936E-6
1.0908E-4	3.5071E-5	6.9826E-8	9.5076E-6
1.0749E-4	2.752E-5	6.9891E-8	9.5217E-6
1.0528E-4	2.0553E-5	6.9958E-8	9.5356E-6
1.0254E-4	1.4224E-5	6.9878E-8	9.5495E-6
9.9389E-5	8.5726E-6	6.9775E-8	9.5636E-6
9.5937E-5	3.6175E-6	6.9906E-8	9.5778E-6
9.2297E-5	-6.3752E-7	7.0037E-8	9.5917E-6
8.8578E-5	-4.2055E-6	7.0064E-8	9.6056E-6
8.4882E-5	-7.1152E-6	6.9971E-8	9.6194E-6
8.1305E-5	-9.4093E-6	6.9876E-8	9.6335E-6
7.7931E-5	-1.1143E-5	6.9801E-8	9.6475E-6
7.4835E-5	-1.2384E-5	6.9707E-8	9.6616E-6
7.2077E-5	-1.3207E-5	6.9746E-8	9.6757E-6
6.9704E-5	-1.3695E-5	6.9874E-8	9.6899E-6
6.7751E-5	-1.3934E-5	7.0163E-8	9.7038E-6
6.6233E-5	-1.4015E-5	7.0199E-8	9.7175E-6
6.5155E-5	-1.4027E-5	7.0059E-8	9.7315E-6
6.4504E-5	-1.4056E-5	7.0024E-8	9.7454E-6
6.4256E-5	-1.4187E-5	6.9883E-8	9.7594E-6
6.4373E-5	-1.4496E-5	6.9788E-8	9.7735E-6
6.4803E-5	-1.505E-5	6.9834E-8	9.7876E-6
6.5488E-5	-1.5908E-5	6.9955E-8	9.8016E-6
6.6359E-5	-1.7117E-5	7.0047E-8	9.8155E-6
6.734E-5	-1.8712E-5	6.9946E-8	9.8294E-6
6.8352E-5	-2.0714E-5	6.9786E-8	9.8434E-6
6.9313E-5	-2.313E-5	6.9734E-8	9.8576E-6
7.0141E-5	-2.5955E-5	6.9764E-8	9.8717E-6
7.0756E-5	-2.9167E-5	6.987E-8	9.8857E-6
7.1083E-5	-3.2734E-5	6.992E-8	9.8997E-6
7.1051E-5	-3.6611E-5	6.9991E-8	9.9137E-6
7.0599E-5	-4.0739E-5	7.0045E-8	9.9276E-6
6.9676E-5	-4.5052E-5	6.9965E-8	9.9415E-6
6.8241E-5	-4.9475E-5	6.9843E-8	9.9555E-6
6.6265E-5	-5.3927E-5	6.9819E-8	9.9696E-6
6.3733E-5	-5.832E-5	6.9932E-8	9.9837E-6
6.0646E-5	-6.2566E-5	7.0072E-8	9.9976E-6
5.7016E-5	-6.6577E-5	7.0041E-8	1.0011E-5
5.2871E-5	-7.0265E-5	6.9942E-8	1.0025E-5
4.8253E-5	-7.3548E-5	6.9785E-8	1.0039E-5
4.3216E-5	-7.6349E-5	6.9665E-8	1.0053E-5
3.7827E-5	-7.8602E-5	6.9614E-8	1.0068E-5
3.2164E-5	-8.0247E-5	6.9822E-8	1.0082E-5
2.6314E-5	-8.124E-5	7.0103E-8	1.0096E-5
2.037E-5	-8.1547E-5	7.0038E-8	1.011E-5
1.4433E-5	-8.115E-5	6.9879E-8	1.0124E-5
8.6056E-6	-8.0047E-5	6.9888E-8	1.0138E-5
2.9919E-6	-7.8248E-5	6.9892E-8	1.0152E-5
-2.3058E-6	-7.5784E-5	6.9881E-8	1.0166E-5
-7.1886E-6	-7.2697E-5	6.99E-8	1.018E-5
-1.1564E-5	-6.9046E-5	6.9867E-8	1.0194E-5
-1.5348E-5	-6.4906E-5	6.9766E-8	1.0208E-5
-1.8466E-5	-6.0361E-5	6.9725E-8	1.0222E-5
-2.0858E-5	-5.551E-5	6.9724E-8	1.0236E-5
-2.2475E-5	-5.046E-5	6.9781E-8	1.025E-5
-2.3287E-5	-4.5325E-5	6.9848E-8	1.0264E-5
-2.3279E-5	-4.0225E-5	6.9906E-8	1.0278E-5
-2.2454E-5	-3.5284E-5	7.0001E-8	1.0292E-5
-2.0831E-5	-3.0624E-5	7.003E-8	1.0306E-5
-1.8452E-5	-2.6366E-5	6.9878E-8	1.032E-5
-1.5371E-5	-2.2626E-5	6.9767E-8	1.0334E-5
-1.1664E-5	-1.9514E-5	6.976E-8	1.0348E-5
-7.4197E-6	-1.7126E-5	6.9677E-8	1.0362E-5
-2.7446E-6	-1.5548E-5	6.9738E-8	1.0376E-5
2.2437E-6	-1.4853E-5	6.994E-8	1.039E-5
7.4159E-6	-1.5095E-5	6.9926E-8	1.0404E-5
1.2634E-5	-1.631E-5	6.9827E-8	1.0418E-5
1.7754E-5	-1.8516E-5	6.973E-8	1.0432E-5
2.2627E-5	-2.1709E-5	6.9699E-8	1.0446E-5
2.7106E-5	-2.5866E-5	6.95E-8	1.046E-5
3.1045E-5	-3.094E-5	6.9428E-8	1.0474E-5
3.4303E-5	-3.6865E-5	6.9636E-8	1.0488E-5
3.6748E-5	-4.3556E-5	6.9745E-8	1.0502E-5
3.8257E-5	-5.0905E-5	6.9613E-8	1.0516E-5
3.8725E-5	-5.879E-5	6.9622E-8	1.053E-5
3.8059E-5	-6.707E-5	6.9849E-8	1.0544E-5
3.6188E-5	-7.5594E-5	6.9878E-8	1.0558E-5
3.3059E-5	-8.4196E-5	6.9855E-8	1.0572E-5
2.8643E-5	-9.2704E-5	6.9914E-8	1.0586E-5
2.2933E-5	-1.0094E-4	6.9885E-8	1.06E-5
1.5949E-5	-1.0872E-4	6.9815E-8	1.0614E-5
7.7315E-6	-1.1588E-4	6.9793E-8	1.0628E-5
-1.6509E-6	-1.2222E-4	6.9932E-8	1.0642E-5
-1.2107E-5	-1.276E-4	7.0068E-8	1.0656E-5
