jMRUI Data Textfile

Filename: Ac.txt

PointsInDataset: 32768     
DatasetsInFile: 1         
SamplingInterval: 3.3333E-2 
ZeroOrderPhase: 0E0       
BeginTime: 0E0       
TransmitterFrequency: 2.9722E8  
MagneticField: 0E0       
TypeOfNucleus: 0E0       
NameOfPatient: 
DateOfExperiment: 
Spectrometer: 
AdditionalInfo: 


Signal and FFT
sig(real)	sig(imag)	fft(real)	fft(imag)
Signal 1 out of 1 in file
3E0	-1.3113E-7	2.8995E-4	1.3064E-1
2.9539E0	-5.1938E-1	2.9061E-4	1.3079E-1
2.8186E0	-1.0228E0	2.9154E-4	1.3093E-1
2.5982E0	-1.495E0	2.9152E-4	1.3108E-1
2.2994E0	-1.9219E0	2.9177E-4	1.3122E-1
1.9313E0	-2.2904E0	2.9266E-4	1.3137E-1
1.5051E0	-2.5896E0	2.9108E-4	1.3151E-1
1.0337E0	-2.8103E0	2.8938E-4	1.3165E-1
5.3122E-1	-2.9461E0	2.8906E-4	1.318E-1
1.3009E-2	-2.9928E0	2.8858E-4	1.3195E-1
-5.0532E-1	-2.949E0	2.8813E-4	1.3209E-1
-1.0081E0	-2.8162E0	2.8946E-4	1.3224E-1
-1.4802E0	-2.5984E0	2.9079E-4	1.3238E-1
-1.9073E0	-2.3022E0	2.9057E-4	1.3253E-1
-2.2765E0	-1.9366E0	2.8989E-4	1.3267E-1
-2.5768E0	-1.5127E0	2.9004E-4	1.3282E-1
-2.7991E0	-1.0434E0	2.8981E-4	1.3296E-1
-2.9367E0	-5.4272E-1	2.8986E-4	1.3311E-1
-2.9855E0	-2.5956E-2	2.8918E-4	1.3325E-1
-2.9441E0	4.9132E-1	2.8861E-4	1.334E-1
-2.8138E0	9.9347E-1	2.8895E-4	1.3354E-1
-2.5986E0	1.4653E0	2.8954E-4	1.3369E-1
-2.3049E0	1.8927E0	2.8976E-4	1.3383E-1
-1.9418E0	2.2627E0	2.8971E-4	1.3398E-1
-1.5203E0	2.5641E0	2.8868E-4	1.3412E-1
-1.053E0	2.7878E0	2.8807E-4	1.3427E-1
-5.5415E-1	2.9273E0	2.8761E-4	1.3441E-1
-3.884E-2	2.9782E0	2.8789E-4	1.3456E-1
4.7737E-1	2.9392E0	2.8875E-4	1.3471E-1
9.7888E-1	2.8113E0	2.8978E-4	1.3485E-1
1.4505E0	2.5987E0	2.9043E-4	1.35E-1
1.8781E0	2.3076E0	2.919E-4	1.3514E-1
2.2488E0	1.947E0	2.9257E-4	1.3528E-1
2.5513E0	1.5277E0	2.9214E-4	1.3543E-1
2.7766E0	1.0625E0	2.9142E-4	1.3557E-1
2.9178E0	5.6551E-1	2.9021E-4	1.3572E-1
2.9709E0	5.1662E-2	2.9117E-4	1.3587E-1
2.9342E0	-4.6347E-1	2.9349E-4	1.3601E-1
2.8088E0	-9.6433E-1	2.9504E-4	1.3616E-1
2.5987E0	-1.4358E0	2.9509E-4	1.363E-1
2.3102E0	-1.8636E0	2.9494E-4	1.3644E-1
1.952E0	-2.2349E0	2.9551E-4	1.3659E-1
1.5351E0	-2.5385E0	2.9624E-4	1.3673E-1
1.072E0	-2.7653E0	2.9629E-4	1.3688E-1
5.768E-1	-2.9084E0	2.9553E-4	1.3702E-1
6.4421E-2	-2.9635E0	2.955E-4	1.3717E-1
-4.4963E-1	-2.9291E0	2.9566E-4	1.3731E-1
-9.4983E-1	-2.8062E0	2.9653E-4	1.3746E-1
-1.4211E0	-2.5987E0	2.9683E-4	1.376E-1
-1.8491E0	-2.3127E0	2.9571E-4	1.3774E-1
-2.2211E0	-1.957E0	2.9427E-4	1.3789E-1
-2.5258E0	-1.5424E0	2.9363E-4	1.3803E-1
-2.754E0	-1.0814E0	2.9298E-4	1.3818E-1
-2.8989E0	-5.8802E-1	2.9282E-4	1.3832E-1
-2.9561E0	-7.7117E-2	2.9172E-4	1.3847E-1
-2.924E0	4.3585E-1	2.9145E-4	1.3862E-1
-2.8036E0	9.3537E-1	2.9191E-4	1.3876E-1
-2.5986E0	1.4064E0	2.917E-4	1.3891E-1
-2.3152E0	1.8346E0	2.9117E-4	1.3905E-1
-1.9619E0	2.2073E0	2.9206E-4	1.392E-1
-1.5497E0	2.513E0	2.9258E-4	1.3934E-1
-1.0908E0	2.7427E0	2.9245E-4	1.3949E-1
-5.9918E-1	2.8893E0	2.9379E-4	1.3963E-1
-8.9751E-2	2.9487E0	2.9478E-4	1.3978E-1
4.2212E-1	2.9189E0	2.9423E-4	1.3992E-1
9.2096E-1	2.8009E0	2.9296E-4	1.4007E-1
1.3917E0	2.5984E0	2.9227E-4	1.4021E-1
1.8202E0	2.3175E0	2.9282E-4	1.4036E-1
2.1934E0	1.9668E0	2.9362E-4	1.405E-1
2.5002E0	1.5568E0	2.9487E-4	1.4065E-1
2.7313E0	1.1E0	2.9546E-4	1.4079E-1
2.8798E0	6.1027E-1	2.9482E-4	1.4094E-1
2.9412E0	1.0232E-1	2.9327E-4	1.4108E-1
2.9137E0	-4.0845E-1	2.9226E-4	1.4123E-1
2.7982E0	-9.066E-1	2.9181E-4	1.4137E-1
2.5982E0	-1.3771E0	2.9088E-4	1.4152E-1
2.3199E0	-1.8058E0	2.9031E-4	1.4166E-1
1.9716E0	-2.1796E0	2.9E-4	1.4181E-1
1.5639E0	-2.4875E0	2.9077E-4	1.4195E-1
1.1092E0	-2.72E0	2.9142E-4	1.421E-1
6.2129E-1	-2.8702E0	2.9171E-4	1.4224E-1
1.1483E-1	-2.9336E0	2.9285E-4	1.4239E-1
-3.9483E-1	-2.9084E0	2.9496E-4	1.4253E-1
-8.9229E-1	-2.7954E0	2.9439E-4	1.4268E-1
-1.3625E0	-2.5979E0	2.9179E-4	1.4282E-1
-1.7913E0	-2.3221E0	2.8863E-4	1.4297E-1
-2.1658E0	-1.9763E0	2.8833E-4	1.4312E-1
-2.4747E0	-1.5709E0	2.8999E-4	1.4326E-1
-2.7086E0	-1.1184E0	2.9161E-4	1.4341E-1
-2.8606E0	-6.3224E-1	2.9186E-4	1.4355E-1
-2.9261E0	-1.2727E-1	2.9322E-4	1.437E-1
-2.9031E0	3.8126E-1	2.9464E-4	1.4384E-1
-2.7925E0	8.7802E-1	2.9408E-4	1.4399E-1
-2.5976E0	1.348E0	2.9415E-4	1.4413E-1
-2.3243E0	1.777E0	2.9427E-4	1.4427E-1
-1.9809E0	2.152E0	2.9264E-4	1.4442E-1
-1.5779E0	2.4619E0	2.9152E-4	1.4456E-1
-1.1274E0	2.6973E0	2.9045E-4	1.4471E-1
-6.4312E-1	2.851E0	2.8984E-4	1.4486E-1
-1.3966E-1	2.9185E0	2.8893E-4	1.45E-1
3.6776E-1	2.8978E0	2.8898E-4	1.4515E-1
8.6379E-1	2.7896E0	2.8942E-4	1.4529E-1
1.3335E0	2.5972E0	2.9069E-4	1.4544E-1
1.7626E0	2.3264E0	2.9164E-4	1.4558E-1
2.1383E0	1.9855E0	2.9053E-4	1.4573E-1
2.4492E0	1.5848E0	2.9084E-4	1.4588E-1
2.6859E0	1.1364E0	2.9224E-4	1.4602E-1
2.8413E0	6.5394E-1	2.9321E-4	1.4617E-1
2.9109E0	1.5198E-1	2.9311E-4	1.4631E-1
2.8924E0	-3.5431E-1	2.9262E-4	1.4646E-1
2.7866E0	-8.4962E-1	2.9271E-4	1.466E-1
2.5967E0	-1.319E0	2.9447E-4	1.4675E-1
2.3284E0	-1.7483E0	2.9672E-4	1.4689E-1
1.99E0	-2.1245E0	2.9796E-4	1.4704E-1
1.5916E0	-2.4364E0	2.9812E-4	1.4718E-1
1.1453E0	-2.6745E0	2.9807E-4	1.4733E-1
6.6469E-1	-2.8317E0	2.9786E-4	1.4747E-1
1.6423E-1	-2.9032E0	2.9652E-4	1.4761E-1
-3.4091E-1	-2.887E0	2.957E-4	1.4776E-1
-8.3549E-1	-2.7836E0	2.9426E-4	1.479E-1
-1.3046E0	-2.5962E0	2.9213E-4	1.4805E-1
-1.734E0	-2.3304E0	2.9221E-4	1.482E-1
-2.1108E0	-1.9944E0	2.9349E-4	1.4834E-1
-2.4236E0	-1.5983E0	2.9446E-4	1.4849E-1
-2.6631E0	-1.1542E0	2.9476E-4	1.4863E-1
-2.822E0	-6.7537E-1	2.9538E-4	1.4878E-1
-2.8955E0	-1.7643E-1	2.9591E-4	1.4892E-1
-2.8815E0	3.2757E-1	2.9559E-4	1.4907E-1
-2.7805E0	8.2141E-1	2.9538E-4	1.4921E-1
-2.5956E0	1.2902E0	2.954E-4	1.4936E-1
-2.3323E0	1.7197E0	2.9539E-4	1.495E-1
-1.9988E0	2.0971E0	2.9508E-4	1.4965E-1
-1.605E0	2.4109E0	2.9545E-4	1.4979E-1
-1.1629E0	2.6517E0	2.9543E-4	1.4994E-1
-6.8598E-1	2.8122E0	2.9552E-4	1.5008E-1
-1.8856E-1	2.8878E0	2.9673E-4	1.5023E-1
3.1429E-1	2.876E0	2.9676E-4	1.5037E-1
8.0737E-1	2.7774E0	2.9534E-4	1.5052E-1
1.2758E0	2.5949E0	2.9361E-4	1.5066E-1
1.7054E0	2.3342E0	2.9133E-4	1.5081E-1
2.0833E0	2.003E0	2.9026E-4	1.5095E-1
2.3981E0	1.6116E0	2.9165E-4	1.511E-1
2.6402E0	1.1716E0	2.9324E-4	1.5125E-1
2.8025E0	6.9652E-1	2.939E-4	1.5139E-1
2.88E0	2.0063E-1	2.9343E-4	1.5153E-1
2.8705E0	-3.0106E-1	2.9259E-4	1.5168E-1
2.7742E0	-7.9339E-1	2.915E-4	1.5182E-1
2.5942E0	-1.2615E0	2.8993E-4	1.5197E-1
2.336E0	-1.6912E0	2.885E-4	1.5212E-1
2.0073E0	-2.0696E0	2.8901E-4	1.5226E-1
1.6181E0	-2.3853E0	2.8997E-4	1.5241E-1
1.1803E0	-2.6288E0	2.9059E-4	1.5256E-1
7.07E-1	-2.7927E0	2.9118E-4	1.527E-1
2.1264E-1	-2.8722E0	2.9185E-4	1.5285E-1
-2.8789E-1	-2.8649E0	2.9253E-4	1.5299E-1
-7.7945E-1	-2.771E0	2.926E-4	1.5314E-1
-1.2472E0	-2.5935E0	2.9332E-4	1.5329E-1
-1.677E0	-2.3377E0	2.9468E-4	1.5343E-1
-2.056E0	-2.0114E0	2.9552E-4	1.5357E-1
-2.3726E0	-1.6245E0	2.952E-4	1.5372E-1
-2.6174E0	-1.1888E0	2.9482E-4	1.5387E-1
-2.7829E0	-7.1741E-1	2.9621E-4	1.5401E-1
-2.8644E0	-2.2458E-1	2.9703E-4	1.5416E-1
-2.8592E0	2.7477E-1	2.9752E-4	1.543E-1
-2.7677E0	7.6555E-1	2.9779E-4	1.5445E-1
-2.5926E0	1.2329E0	2.9806E-4	1.5459E-1
-2.3393E0	1.6628E0	2.9781E-4	1.5473E-1
-2.0155E0	2.0423E0	2.9704E-4	1.5488E-1
-1.6309E0	2.3598E0	2.9568E-4	1.5502E-1
-1.1973E0	2.6059E0	2.9446E-4	1.5517E-1
-7.2775E-1	2.7731E0	2.9361E-4	1.5531E-1
-2.3646E-1	2.8565E0	2.9222E-4	1.5546E-1
2.6171E-1	2.8535E0	2.9265E-4	1.5561E-1
7.5171E-1	2.7644E0	2.9491E-4	1.5576E-1
1.2187E0	2.5917E0	2.9701E-4	1.559E-1
1.6487E0	2.3409E0	2.979E-4	1.5604E-1
2.0286E0	2.0195E0	2.9806E-4	1.5619E-1
2.3471E0	1.6372E0	2.979E-4	1.5633E-1
2.5944E0	1.2057E0	2.9678E-4	1.5648E-1
2.7633E0	7.3802E-1	2.9412E-4	1.5662E-1
2.8486E0	2.4828E-1	2.927E-4	1.5677E-1
2.8478E0	-2.4871E-1	2.9307E-4	1.5691E-1
2.761E0	-7.3791E-1	2.9347E-4	1.5706E-1
2.5908E0	-1.2046E0	2.9306E-4	1.5721E-1
2.3424E0	-1.6346E0	2.9417E-4	1.5735E-1
2.0234E0	-2.015E0	2.9465E-4	1.575E-1
1.6435E0	-2.3343E0	2.9459E-4	1.5764E-1
1.2141E0	-2.583E0	2.9405E-4	1.5779E-1
7.4823E-1	-2.7535E0	2.936E-4	1.5793E-1
2.6003E-1	-2.8407E0	2.9378E-4	1.5808E-1
-2.3576E-1	-2.842E0	2.9344E-4	1.5823E-1
-7.2416E-1	-2.7575E0	2.9406E-4	1.5837E-1
-1.1904E0	-2.5898E0	2.948E-4	1.5852E-1
-1.6205E0	-2.3439E0	2.97E-4	1.5867E-1
-2.0014E0	-2.0273E0	2.989E-4	1.5881E-1
-2.3216E0	-1.6496E0	2.9863E-4	1.5895E-1
-2.5715E0	-1.2224E0	2.9768E-4	1.591E-1
-2.7436E0	-7.5837E-1	2.9703E-4	1.5924E-1
-2.8327E0	-2.7173E-1	2.9658E-4	1.5939E-1
-2.8362E0	2.2287E-1	2.9573E-4	1.5953E-1
-2.754E0	7.1046E-1	2.9542E-4	1.5968E-1
-2.5887E0	1.1763E0	2.9614E-4	1.5983E-1
-2.3453E0	1.6064E0	2.9608E-4	1.5997E-1
-2.0311E0	1.9878E0	2.9608E-4	1.6012E-1
-1.6557E0	2.3088E0	2.9612E-4	1.6026E-1
-1.2306E0	2.56E0	2.9818E-4	1.6041E-1
-7.6844E-1	2.7337E0	3.0034E-4	1.6055E-1
-2.8336E-1	2.8247E0	2.9968E-4	1.607E-1
2.1003E-1	2.8304E0	2.9883E-4	1.6084E-1
6.9681E-1	2.7505E0	2.9936E-4	1.6099E-1
1.1623E0	2.5876E0	2.9973E-4	1.6113E-1
1.5924E0	2.3466E0	2.9906E-4	1.6128E-1
1.9742E0	2.0348E0	2.9889E-4	1.6142E-1
2.2961E0	1.6618E0	2.9909E-4	1.6157E-1
2.5485E0	1.2387E0	2.9879E-4	1.6171E-1
2.7238E0	7.7845E-1	2.9784E-4	1.6186E-1
2.8167E0	2.9492E-1	2.975E-4	1.6201E-1
2.8244E0	-1.9725E-1	2.9815E-4	1.6215E-1
2.7469E0	-6.8321E-1	2.9835E-4	1.623E-1
2.5864E0	-1.1483E0	2.9822E-4	1.6244E-1
2.3478E0	-1.5784E0	2.995E-4	1.6259E-1
2.0385E0	-1.9606E0	2.9872E-4	1.6273E-1
1.6677E0	-2.2834E0	2.9722E-4	1.6288E-1
1.2468E0	-2.537E0	2.9763E-4	1.6302E-1
7.8839E-1	-2.7139E0	2.9773E-4	1.6317E-1
3.0643E-1	-2.8086E0	2.9729E-4	1.6331E-1
-1.8453E-1	-2.8185E0	2.982E-4	1.6346E-1
-6.6965E-1	-2.7432E0	2.9793E-4	1.636E-1
-1.1343E0	-2.5851E0	2.9711E-4	1.6375E-1
-1.5644E0	-2.349E0	2.9689E-4	1.639E-1
-1.947E0	-2.0421E0	2.9678E-4	1.6404E-1
-2.2706E0	-1.6736E0	2.9674E-4	1.6419E-1
-2.5255E0	-1.2548E0	2.9643E-4	1.6433E-1
-2.7039E0	-7.9826E-1	2.9639E-4	1.6448E-1
-2.8005E0	-3.1787E-1	2.977E-4	1.6462E-1
-2.8125E0	1.7186E-1	2.9816E-4	1.6477E-1
-2.7395E0	6.5614E-1	2.9708E-4	1.6491E-1
-2.5838E0	1.1203E0	2.9503E-4	1.6506E-1
-2.3502E0	1.5505E0	2.943E-4	1.6521E-1
-2.0456E0	1.9335E0	2.9586E-4	1.6535E-1
-1.6794E0	2.2579E0	2.9804E-4	1.655E-1
-1.2627E0	2.514E0	2.995E-4	1.6564E-1
-8.0806E-1	2.6939E0	2.9805E-4	1.6578E-1
-3.2925E-1	2.7924E0	2.9463E-4	1.6593E-1
1.5925E-1	2.8065E0	2.9311E-4	1.6608E-1
