jMRUI Data Textfile

Filename: Cyn.txt

PointsInDataset: 32768     
DatasetsInFile: 1         
SamplingInterval: 3.3333E-2 
ZeroOrderPhase: 0E0       
BeginTime: 0E0       
TransmitterFrequency: 2.9722E8  
MagneticField: 6.9809E0  
TypeOfNucleus: 0E0       
NameOfPatient: 
DateOfExperiment: 
Spectrometer: 
AdditionalInfo: 
SignalNames: Cystathionine;


Signal and FFT
sig(real)	sig(imag)	fft(real)	fft(imag)
Signal 1 out of 1 in file
2.113E1	-3.4114E-6	4.6593E-3	5.6864E-1
2.0987E1	-2.2677E0	4.6702E-3	5.6966E-1
2.0569E1	-4.4981E0	4.6738E-3	5.7066E-1
1.9886E1	-6.6555E0	4.6743E-3	5.7168E-1
1.8948E1	-8.7058E0	4.6748E-3	5.7269E-1
1.7772E1	-1.0617E1	4.674E-3	5.737E-1
1.6381E1	-1.236E1	4.6704E-3	5.7471E-1
1.48E1	-1.3908E1	4.6611E-3	5.7573E-1
1.3055E1	-1.5239E1	4.6538E-3	5.7675E-1
1.1179E1	-1.6336E1	4.6507E-3	5.7777E-1
9.2046E0	-1.7184E1	4.6567E-3	5.7879E-1
7.1655E0	-1.7776E1	4.6489E-3	5.7981E-1
5.0969E0	-1.8107E1	4.6554E-3	5.8084E-1
3.0338E0	-1.8178E1	4.6638E-3	5.8186E-1
1.0102E0	-1.7995E1	4.673E-3	5.8287E-1
-9.4115E-1	-1.7568E1	4.6728E-3	5.8388E-1
-2.7895E0	-1.6913E1	4.675E-3	5.849E-1
-4.5068E0	-1.6047E1	4.6831E-3	5.8591E-1
-6.0683E0	-1.4994E1	4.6828E-3	5.8692E-1
-7.4525E0	-1.3778E1	4.6787E-3	5.8793E-1
-8.6423E0	-1.2427E1	4.6723E-3	5.8894E-1
-9.6244E0	-1.0971E1	4.663E-3	5.8996E-1
-1.039E1	-9.4395E0	4.6586E-3	5.9098E-1
-1.0935E1	-7.8646E0	4.6549E-3	5.9199E-1
-1.1261E1	-6.277E0	4.6485E-3	5.9301E-1
-1.137E1	-4.707E0	4.6468E-3	5.9404E-1
-1.1272E1	-3.1833E0	4.6473E-3	5.9506E-1
-1.098E1	-1.7329E0	4.6485E-3	5.9609E-1
-1.051E1	-3.802E-1	4.6608E-3	5.9711E-1
-9.8809E0	8.5343E-1	4.6708E-3	5.9812E-1
-9.114E0	1.9498E0	4.676E-3	5.9913E-1
-8.2332E0	2.8943E0	4.6747E-3	6.0014E-1
-7.2636E0	3.6761E0	4.6633E-3	6.0116E-1
-6.2309E0	4.2884E0	4.6627E-3	6.0218E-1
-5.1613E0	4.7281E0	4.6705E-3	6.032E-1
-4.0806E0	4.9963E0	4.6726E-3	6.0421E-1
-3.0136E0	5.0974E0	4.6651E-3	6.0522E-1
-1.9837E0	5.0395E0	4.6594E-3	6.0624E-1
-1.0124E0	4.8339E0	4.6596E-3	6.0726E-1
-1.1894E-1	4.4947E0	4.6619E-3	6.0828E-1
6.8027E-1	4.0381E0	4.6589E-3	6.0929E-1
1.3717E0	3.4825E0	4.656E-3	6.1032E-1
1.9449E0	2.8475E0	4.6618E-3	6.1134E-1
2.393E0	2.1537E0	4.6586E-3	6.1235E-1
2.712E0	1.4221E0	4.6582E-3	6.1337E-1
2.9015E0	6.7322E-1	4.6649E-3	6.1439E-1
2.9642E0	-7.2676E-2	4.6708E-3	6.1541E-1
2.9056E0	-7.9669E-1	4.6671E-3	6.1642E-1
2.7341E0	-1.4814E0	4.6675E-3	6.1744E-1
2.4602E0	-2.1113E0	4.6738E-3	6.1846E-1
2.0967E0	-2.673E0	4.6751E-3	6.1947E-1
1.6578E0	-3.1558E0	4.6759E-3	6.2048E-1
1.1588E0	-3.5515E0	4.6612E-3	6.2149E-1
6.1586E-1	-3.8545E0	4.6556E-3	6.2252E-1
4.5195E-2	-4.0622E0	4.6563E-3	6.2354E-1
-5.3706E-1	-4.1744E0	4.6635E-3	6.2456E-1
-1.1154E0	-4.1938E0	4.667E-3	6.2558E-1
-1.6755E0	-4.1252E0	4.6691E-3	6.266E-1
-2.2043E0	-3.9758E0	4.6771E-3	6.2762E-1
-2.6903E0	-3.7544E0	4.6771E-3	6.2863E-1
-3.1242E0	-3.4715E0	4.6727E-3	6.2964E-1
-3.4987E0	-3.1387E0	4.6772E-3	6.3066E-1
-3.8087E0	-2.7683E0	4.6786E-3	6.3167E-1
-4.0516E0	-2.373E0	4.6777E-3	6.3269E-1
-4.2268E0	-1.9654E0	4.6813E-3	6.3371E-1
-4.3362E0	-1.5577E0	4.6806E-3	6.3473E-1
-4.3835E0	-1.1612E0	4.6864E-3	6.3574E-1
-4.3746E0	-7.8634E-1	4.6824E-3	6.3675E-1
-4.3167E0	-4.4178E-1	4.6736E-3	6.3776E-1
-4.2185E0	-1.3474E-1	4.6696E-3	6.3878E-1
-4.0897E0	1.2949E-1	4.6626E-3	6.398E-1
-3.9405E0	3.476E-1	4.6599E-3	6.4082E-1
-3.7817E0	5.1833E-1	4.658E-3	6.4184E-1
-3.6237E0	6.4244E-1	4.6557E-3	6.4287E-1
-3.4766E0	7.2274E-1	4.6657E-3	6.4389E-1
-3.3497E0	7.6386E-1	4.6679E-3	6.449E-1
-3.251E0	7.7213E-1	4.6696E-3	6.4592E-1
-3.1875E0	7.5535E-1	4.6742E-3	6.4694E-1
-3.1641E0	7.2251E-1	4.677E-3	6.4795E-1
-3.1843E0	6.8346E-1	4.6786E-3	6.4897E-1
-3.2494E0	6.4858E-1	4.6794E-3	6.4998E-1
-3.3587E0	6.2846E-1	4.6648E-3	6.5099E-1
-3.5096E0	6.3349E-1	4.667E-3	6.5202E-1
-3.6974E0	6.7352E-1	4.6719E-3	6.5304E-1
-3.9155E0	7.5752E-1	4.6723E-3	6.5405E-1
-4.1558E0	8.9324E-1	4.6731E-3	6.5508E-1
-4.4085E0	1.0869E0	4.6805E-3	6.5609E-1
-4.6628E0	1.3431E0	4.676E-3	6.571E-1
-4.9068E0	1.6644E0	4.6681E-3	6.5812E-1
-5.1283E0	2.0511E0	4.6706E-3	6.5914E-1
-5.3148E0	2.5017E0	4.6709E-3	6.6015E-1
-5.4539E0	3.0122E0	4.6659E-3	6.6117E-1
-5.534E0	3.5766E0	4.6636E-3	6.6219E-1
-5.5442E0	4.1866E0	4.6591E-3	6.6321E-1
-5.4749E0	4.8322E0	4.661E-3	6.6424E-1
-5.3183E0	5.5018E0	4.6637E-3	6.6526E-1
-5.0684E0	6.1821E0	4.6711E-3	6.6628E-1
-4.7212E0	6.859E0	4.6739E-3	6.6729E-1
-4.275E0	7.5174E0	4.6795E-3	6.6831E-1
-3.7307E0	8.1419E0	4.6817E-3	6.6932E-1
-3.0914E0	8.7173E0	4.6803E-3	6.7034E-1
-2.363E0	9.2285E0	4.6771E-3	6.7135E-1
-1.5534E0	9.6615E0	4.6771E-3	6.7237E-1
-6.731E-1	1.0004E1	4.6739E-3	6.7339E-1
2.6559E-1	1.0243E1	4.6716E-3	6.7441E-1
1.2484E0	1.0371E1	4.676E-3	6.7543E-1
2.2598E0	1.038E1	4.681E-3	6.7645E-1
3.2828E0	1.0264E1	4.6852E-3	6.7746E-1
4.2999E0	1.0023E1	4.6837E-3	6.7847E-1
5.2931E0	9.6559E0	4.677E-3	6.7949E-1
6.2447E0	9.1663E0	4.6734E-3	6.805E-1
7.1374E0	8.56E0	4.6699E-3	6.8152E-1
7.9547E0	7.8456E0	4.6701E-3	6.8255E-1
8.6817E0	7.0339E0	4.6739E-3	6.8357E-1
9.3051E0	6.1382E0	4.6773E-3	6.8458E-1
9.8136E0	5.1736E0	4.6777E-3	6.856E-1
1.0198E1	4.1568E0	4.6706E-3	6.8662E-1
1.0453E1	3.1057E0	4.6752E-3	6.8764E-1
1.0575E1	2.0391E0	4.6831E-3	6.8866E-1
1.0562E1	9.7619E-1	4.6831E-3	6.8967E-1
1.0418E1	-6.3993E-2	4.6815E-3	6.9068E-1
1.0146E1	-1.0629E0	4.6778E-3	6.917E-1
9.7565E0	-2.003E0	4.6733E-3	6.9272E-1
9.2585E0	-2.8681E0	4.6785E-3	6.9374E-1
8.6652E0	-3.6439E0	4.6767E-3	6.9475E-1
7.9915E0	-4.3181E0	4.6725E-3	6.9577E-1
7.2541E0	-4.881E0	4.6658E-3	6.9679E-1
6.4708E0	-5.3256E0	4.6636E-3	6.9781E-1
5.6606E0	-5.6476E0	4.6663E-3	6.9883E-1
4.8425E0	-5.8458E0	4.6712E-3	6.9986E-1
4.0356E0	-5.9219E0	4.6768E-3	7.0087E-1
3.2586E0	-5.8809E0	4.6804E-3	7.0188E-1
2.529E0	-5.7303E0	4.6772E-3	7.0289E-1
1.8628E0	-5.4803E0	4.6677E-3	7.0392E-1
1.2743E0	-5.1436E0	4.6738E-3	7.0494E-1
7.7562E-1	-4.7352E0	4.6703E-3	7.0595E-1
3.7613E-1	-4.2713E0	4.6693E-3	7.0697E-1
8.259E-2	-3.7699E0	4.6665E-3	7.0798E-1
-1.0125E-1	-3.2497E0	4.6554E-3	7.09E-1
-1.7469E-1	-2.7295E0	4.6516E-3	7.1003E-1
-1.4014E-1	-2.2284E0	4.6548E-3	7.1106E-1
-3.0385E-3	-1.7646E0	4.6613E-3	7.1208E-1
2.2825E-1	-1.3552E0	4.6656E-3	7.1309E-1
5.4265E-1	-1.016E0	4.6642E-3	7.1411E-1
9.2662E-1	-7.6058E-1	4.6681E-3	7.1514E-1
1.3645E0	-6.0028E-1	4.6725E-3	7.1615E-1
1.839E0	-5.4375E-1	4.6729E-3	7.1717E-1
2.3314E0	-5.9674E-1	4.679E-3	7.1819E-1
2.8222E0	-7.619E-1	4.6825E-3	7.192E-1
3.2918E0	-1.0387E0	4.6846E-3	7.2021E-1
3.7205E0	-1.4232E0	4.6745E-3	7.2122E-1
4.0895E0	-1.9087E0	4.6619E-3	7.2224E-1
4.3811E0	-2.4849E0	4.6556E-3	7.2327E-1
4.5795E0	-3.1392E0	4.6652E-3	7.2429E-1
4.6709E0	-3.8561E0	4.6619E-3	7.2531E-1
4.6439E0	-4.618E0	4.6627E-3	7.2633E-1
4.4902E0	-5.4056E0	4.6646E-3	7.2735E-1
4.2044E0	-6.1982E0	4.67E-3	7.2838E-1
3.7846E0	-6.9744E0	4.6787E-3	7.2939E-1
3.2322E0	-7.7123E0	4.6751E-3	7.304E-1
2.5522E0	-8.3904E0	4.6753E-3	7.3142E-1
1.7527E0	-8.988E0	4.6765E-3	7.3244E-1
8.4549E-1	-9.4855E0	4.6729E-3	7.3346E-1
-1.5497E-1	-9.8655E0	4.6752E-3	7.3447E-1
-1.2313E0	-1.0112E1	4.6691E-3	7.3549E-1
-2.3637E0	-1.0214E1	4.6709E-3	7.3651E-1
-3.5306E0	-1.016E1	4.6627E-3	7.3753E-1
-4.7088E0	-9.9448E0	4.6624E-3	7.3855E-1
-5.8742E0	-9.5655E0	4.6634E-3	7.3957E-1
-7.0023E0	-9.0231E0	4.6636E-3	7.4059E-1
-8.0687E0	-8.3222E0	4.6598E-3	7.4161E-1
-9.05E0	-7.4715E0	4.6597E-3	7.4263E-1
-9.9237E0	-6.4827E0	4.6627E-3	7.4366E-1
-1.067E1	-5.3713E0	4.676E-3	7.4468E-1
-1.1269E1	-4.1556E0	4.6738E-3	7.4569E-1
-1.1708E1	-2.8567E0	4.6724E-3	7.4671E-1
-1.1973E1	-1.4977E0	4.6747E-3	7.4773E-1
-1.2056E1	-1.0381E-1	4.679E-3	7.4875E-1
-1.1952E1	1.2988E0	4.6799E-3	7.4976E-1
-1.166E1	2.6833E0	4.6787E-3	7.5078E-1
-1.1183E1	4.0227E0	4.6765E-3	7.518E-1
-1.0527E1	5.2907E0	4.675E-3	7.5282E-1
-9.7052E0	6.4621E0	4.6732E-3	7.5384E-1
-8.7302E0	7.5133E0	4.6788E-3	7.5486E-1
-7.6204E0	8.423E0	4.683E-3	7.5587E-1
-6.3966E0	9.1727E0	4.6749E-3	7.5689E-1
-5.0823E0	9.7471E0	4.6737E-3	7.5792E-1
-3.7031E0	1.0134E1	4.6844E-3	7.5894E-1
-2.2861E0	1.0326E1	4.6849E-3	7.5996E-1
-8.5949E-1	1.0319E1	4.6897E-3	7.6098E-1
5.4821E-1	1.0112E1	4.6976E-3	7.6199E-1
1.9087E0	9.7104E0	4.7011E-3	7.63E-1
3.1945E0	9.1221E0	4.6943E-3	7.6401E-1
4.3796E0	8.3594E0	4.6907E-3	7.6502E-1
5.4399E0	7.4382E0	4.6796E-3	7.6604E-1
6.3538E0	6.3778E0	4.6707E-3	7.6707E-1
7.1028E0	5.2004E0	4.6723E-3	7.6809E-1
7.6718E0	3.9306E0	4.6711E-3	7.6911E-1
8.0491E0	2.5951E0	4.6722E-3	7.7014E-1
8.2273E0	1.222E0	4.6769E-3	7.7116E-1
8.2031E0	-1.5993E-1	4.6821E-3	7.7217E-1
7.9771E0	-1.5216E0	4.6806E-3	7.7319E-1
7.5543E0	-2.8344E0	4.6785E-3	7.742E-1
6.9438E0	-4.0708E0	4.672E-3	7.7522E-1
6.1583E0	-5.2047E0	4.6663E-3	7.7624E-1
5.2144E0	-6.2122E0	4.6623E-3	7.7727E-1
4.1318E0	-7.0723E0	4.6757E-3	7.783E-1
2.9327E0	-7.7667E0	4.6795E-3	7.7931E-1
1.6422E0	-8.2807E0	4.6801E-3	7.8033E-1
2.8667E-1	-8.6034E0	4.6825E-3	7.8134E-1
-1.106E0	-8.7276E0	4.6738E-3	7.8236E-1
-2.5075E0	-8.6504E0	4.6663E-3	7.8338E-1
-3.8893E0	-8.3728E0	4.6666E-3	7.8441E-1
-5.2235E0	-7.8999E0	4.6728E-3	7.8544E-1
-6.4832E0	-7.2407E0	4.6838E-3	7.8646E-1
-7.6435E0	-6.4078E0	4.6907E-3	7.8748E-1
-8.6813E0	-5.4172E0	4.6996E-3	7.8849E-1
-9.5762E0	-4.288E0	4.7034E-3	7.895E-1
-1.0311E1	-3.0416E0	4.6989E-3	7.9051E-1
-1.0872E1	-1.7017E0	4.6962E-3	7.9153E-1
-1.1247E1	-2.9347E-1	4.6945E-3	7.9254E-1
-1.1432E1	1.1568E0	4.6771E-3	7.9356E-1
-1.1422E1	2.6224E0	4.6721E-3	7.9459E-1
-1.1219E1	4.0767E0	4.6854E-3	7.9562E-1
-1.0826E1	5.4937E0	4.693E-3	7.9663E-1
-1.0253E1	6.8486E0	4.6917E-3	7.9764E-1
-9.5097E0	8.1179E0	4.6842E-3	7.9866E-1
-8.6115E0	9.2807E0	4.6796E-3	7.9968E-1
-7.5751E0	1.0318E1	4.678E-3	8.007E-1
-6.4198E0	1.1214E1	4.6747E-3	8.0172E-1
-5.1664E0	1.1956E1	4.6724E-3	8.0274E-1
-3.8374E0	1.2533E1	4.6694E-3	8.0376E-1
-2.4557E0	1.294E1	4.67E-3	8.0478E-1
-1.0449E0	1.3174E1	4.6707E-3	8.058E-1
3.7191E-1	1.3234E1	4.6659E-3	8.0682E-1
1.7721E0	1.3125E1	4.66E-3	8.0784E-1
3.1343E0	1.2851E1	4.6594E-3	8.0888E-1
4.4385E0	1.2424E1	4.6685E-3	8.0991E-1
5.6666E0	1.1854E1	4.6901E-3	8.1092E-1
6.8026E0	1.1155E1	4.6933E-3	8.1192E-1
7.833E0	1.0342E1	4.6796E-3	8.1293E-1
8.747E0	9.4334E0	4.6701E-3	8.1396E-1
9.5361E0	8.4457E0	4.6635E-3	8.1498E-1
1.0195E1	7.3977E0	4.6724E-3	8.1601E-1
1.0721E1	6.3075E0	4.6721E-3	8.1702E-1
