jMRUI Data Textfile

Filename: Cys.txt

PointsInDataset: 32768     
DatasetsInFile: 1         
SamplingInterval: 3.3333E-2 
ZeroOrderPhase: 0E0       
BeginTime: 0E0       
TransmitterFrequency: 2.9722E8  
MagneticField: 6.9809E0  
TypeOfNucleus: 0E0       
NameOfPatient: 
DateOfExperiment: 
Spectrometer: 
AdditionalInfo: 
SignalNames: Cysteine (Cys);


Signal and FFT
sig(real)	sig(imag)	fft(real)	fft(imag)
Signal 1 out of 1 in file
7.9236E-5	1.1004E-11	4.9259E-9	-1.8334E-6
7.8792E-5	7.3148E-6	4.9271E-9	-1.8295E-6
7.7503E-5	1.4509E-5	4.9329E-9	-1.8257E-6
7.5395E-5	2.1469E-5	4.9638E-9	-1.8219E-6
7.2512E-5	2.8085E-5	4.981E-9	-1.8181E-6
6.8913E-5	3.4257E-5	5.0014E-9	-1.8143E-6
6.4671E-5	3.9894E-5	4.9826E-9	-1.8105E-6
5.9873E-5	4.4918E-5	4.9933E-9	-1.8067E-6
5.4613E-5	4.9264E-5	5.0276E-9	-1.8029E-6
4.8997E-5	5.2885E-5	4.9957E-9	-1.7991E-6
4.3133E-5	5.5749E-5	4.967E-9	-1.7953E-6
3.7135E-5	5.784E-5	4.9847E-9	-1.7914E-6
3.1113E-5	5.9162E-5	5.0179E-9	-1.7876E-6
2.5179E-5	5.9733E-5	5.06E-9	-1.7838E-6
1.9435E-5	5.9591E-5	5.1068E-9	-1.78E-6
1.3979E-5	5.8785E-5	5.0938E-9	-1.7763E-6
8.8971E-6	5.7382E-5	5.0566E-9	-1.7725E-6
4.264E-6	5.5457E-5	5.0175E-9	-1.7687E-6
1.4037E-7	5.3098E-5	5.01E-9	-1.7648E-6
-3.4282E-6	5.04E-5	5.0393E-9	-1.761E-6
-6.4119E-6	4.7462E-5	5.1052E-9	-1.7572E-6
-8.7978E-6	4.4385E-5	5.1465E-9	-1.7534E-6
-1.0589E-5	4.1271E-5	5.1508E-9	-1.7497E-6
-1.1806E-5	3.8219E-5	5.0947E-9	-1.7459E-6
-1.2484E-5	3.5323E-5	5.0387E-9	-1.7421E-6
-1.2673E-5	3.2666E-5	4.9811E-9	-1.7382E-6
-1.2435E-5	3.0325E-5	5.0056E-9	-1.7344E-6
-1.1845E-5	2.8362E-5	5.0986E-9	-1.7305E-6
-1.0985E-5	2.6828E-5	5.1408E-9	-1.7268E-6
-9.9459E-6	2.5756E-5	5.1096E-9	-1.723E-6
-8.8204E-6	2.5165E-5	5.0716E-9	-1.7193E-6
-7.7041E-6	2.5058E-5	5.0065E-9	-1.7154E-6
-6.6911E-6	2.5422E-5	5.0047E-9	-1.7116E-6
-5.8717E-6	2.6227E-5	5.0541E-9	-1.7077E-6
-5.3301E-6	2.7429E-5	5.1152E-9	-1.7039E-6
-5.1418E-6	2.8969E-5	5.1238E-9	-1.7002E-6
-5.3716E-6	3.0779E-5	5.0985E-9	-1.6964E-6
-6.0716E-6	3.2776E-5	5.0638E-9	-1.6926E-6
-7.2799E-6	3.4873E-5	5.0579E-9	-1.6888E-6
-9.0194E-6	3.6976E-5	5.0878E-9	-1.685E-6
-1.1297E-5	3.8986E-5	5.088E-9	-1.6812E-6
-1.4103E-5	4.0806E-5	5.0566E-9	-1.6774E-6
-1.7411E-5	4.234E-5	5.029E-9	-1.6736E-6
-2.118E-5	4.3497E-5	5.0296E-9	-1.6698E-6
-2.5354E-5	4.4192E-5	4.9946E-9	-1.666E-6
-2.9862E-5	4.4352E-5	4.9849E-9	-1.6622E-6
-3.4623E-5	4.3913E-5	5.0061E-9	-1.6584E-6
-3.9545E-5	4.2825E-5	5.0108E-9	-1.6546E-6
-4.4527E-5	4.1055E-5	4.9717E-9	-1.6508E-6
-4.9466E-5	3.8584E-5	4.9549E-9	-1.647E-6
-5.4254E-5	3.5409E-5	4.9529E-9	-1.6431E-6
-5.8783E-5	3.1545E-5	4.9495E-9	-1.6393E-6
-6.295E-5	2.7025E-5	4.9461E-9	-1.6355E-6
-6.6653E-5	2.1896E-5	4.986E-9	-1.6317E-6
-6.9802E-5	1.6221E-5	5.0085E-9	-1.6279E-6
-7.2315E-5	1.0077E-5	4.9751E-9	-1.6241E-6
-7.4122E-5	3.5537E-6	4.9487E-9	-1.6203E-6
-7.5169E-5	-3.2507E-6	4.9543E-9	-1.6164E-6
-7.5415E-5	-1.0229E-5	4.9801E-9	-1.6126E-6
-7.4837E-5	-1.7269E-5	5.0176E-9	-1.6088E-6
-7.3429E-5	-2.4256E-5	5.0041E-9	-1.6051E-6
-7.1201E-5	-3.1075E-5	4.9736E-9	-1.6013E-6
-6.8181E-5	-3.7613E-5	4.9676E-9	-1.5975E-6
-6.4414E-5	-4.3764E-5	4.9581E-9	-1.5936E-6
-5.996E-5	-4.9429E-5	4.9701E-9	-1.5898E-6
-5.4894E-5	-5.4519E-5	4.9526E-9	-1.5861E-6
-4.9302E-5	-5.8957E-5	4.9171E-9	-1.5822E-6
-4.328E-5	-6.2681E-5	4.9174E-9	-1.5784E-6
-3.6934E-5	-6.5643E-5	4.942E-9	-1.5746E-6
-3.0375E-5	-6.7812E-5	4.9772E-9	-1.5708E-6
-2.3715E-5	-6.9174E-5	4.9473E-9	-1.567E-6
-1.7067E-5	-6.9733E-5	4.9192E-9	-1.5632E-6
-1.0544E-5	-6.9508E-5	4.9221E-9	-1.5594E-6
-4.25E-6	-6.8537E-5	4.8858E-9	-1.5556E-6
1.7156E-6	-6.6872E-5	4.8985E-9	-1.5517E-6
7.2645E-6	-6.4578E-5	4.9266E-9	-1.5479E-6
1.232E-5	-6.1733E-5	4.9031E-9	-1.5442E-6
1.6819E-5	-5.8427E-5	4.8752E-9	-1.5403E-6
2.0714E-5	-5.4753E-5	4.8926E-9	-1.5365E-6
2.3972E-5	-5.0815E-5	4.9041E-9	-1.5327E-6
2.6577E-5	-4.6716E-5	4.9015E-9	-1.5289E-6
2.8531E-5	-4.256E-5	4.8482E-9	-1.5251E-6
2.985E-5	-3.8448E-5	4.8638E-9	-1.5213E-6
3.0568E-5	-3.4477E-5	4.8572E-9	-1.5175E-6
3.0732E-5	-3.0737E-5	4.8315E-9	-1.5136E-6
3.0404E-5	-2.7305E-5	4.8686E-9	-1.5098E-6
2.9654E-5	-2.4251E-5	4.859E-9	-1.506E-6
2.8565E-5	-2.1627E-5	4.8647E-9	-1.5022E-6
2.7225E-5	-1.9474E-5	4.9101E-9	-1.4984E-6
2.5728E-5	-1.7816E-5	4.8777E-9	-1.4946E-6
2.4169E-5	-1.666E-5	4.8328E-9	-1.4908E-6
2.2641E-5	-1.6E-5	4.7825E-9	-1.487E-6
2.1238E-5	-1.5811E-5	4.7956E-9	-1.4831E-6
2.0045E-5	-1.6055E-5	4.8653E-9	-1.4792E-6
1.9138E-5	-1.6679E-5	4.925E-9	-1.4755E-6
1.8587E-5	-1.7619E-5	4.922E-9	-1.4717E-6
1.8446E-5	-1.8799E-5	4.9193E-9	-1.4679E-6
1.8758E-5	-2.0136E-5	4.9229E-9	-1.4641E-6
1.955E-5	-2.1539E-5	4.8955E-9	-1.4603E-6
2.0833E-5	-2.2917E-5	4.8963E-9	-1.4564E-6
2.2604E-5	-2.4173E-5	4.9354E-9	-1.4526E-6
2.4841E-5	-2.5216E-5	4.9729E-9	-1.4488E-6
2.751E-5	-2.5956E-5	4.9933E-9	-1.445E-6
3.0561E-5	-2.6312E-5	4.994E-9	-1.4412E-6
3.3928E-5	-2.6209E-5	4.9921E-9	-1.4375E-6
3.7537E-5	-2.5587E-5	4.984E-9	-1.4336E-6
4.1303E-5	-2.4395E-5	5.0018E-9	-1.4298E-6
4.5131E-5	-2.2598E-5	5.031E-9	-1.426E-6
4.8923E-5	-2.0177E-5	5.0174E-9	-1.4222E-6
5.2577E-5	-1.7127E-5	5.035E-9	-1.4184E-6
5.5991E-5	-1.3462E-5	5.0313E-9	-1.4147E-6
5.9066E-5	-9.2097E-6	5.0093E-9	-1.4109E-6
6.1707E-5	-4.4155E-6	4.9976E-9	-1.4071E-6
6.3826E-5	8.6109E-7	5.0158E-9	-1.4032E-6
6.5345E-5	6.5468E-6	5.024E-9	-1.3994E-6
6.6199E-5	1.2557E-5	5.0395E-9	-1.3957E-6
6.6334E-5	1.8796E-5	5.0288E-9	-1.3919E-6
6.5713E-5	2.5161E-5	4.9876E-9	-1.3881E-6
6.4314E-5	3.1544E-5	4.9667E-9	-1.3843E-6
6.2132E-5	3.7834E-5	4.9668E-9	-1.3805E-6
5.9179E-5	4.3921E-5	4.9511E-9	-1.3766E-6
5.5484E-5	4.9696E-5	5.0026E-9	-1.3728E-6
5.1091E-5	5.5055E-5	5.0412E-9	-1.369E-6
4.6061E-5	5.9903E-5	5.01E-9	-1.3653E-6
4.0467E-5	6.4154E-5	4.9868E-9	-1.3615E-6
3.4396E-5	6.7733E-5	4.9758E-9	-1.3577E-6
2.7943E-5	7.0581E-5	4.9612E-9	-1.3538E-6
2.1214E-5	7.2652E-5	4.9879E-9	-1.35E-6
1.4318E-5	7.3918E-5	4.9877E-9	-1.3462E-6
7.3679E-6	7.4365E-5	4.9961E-9	-1.3425E-6
4.766E-7	7.4E-5	4.9753E-9	-1.3387E-6
-6.245E-6	7.2842E-5	4.9241E-9	-1.3349E-6
-1.2691E-5	7.093E-5	4.8996E-9	-1.331E-6
-1.8763E-5	6.8318E-5	4.935E-9	-1.3272E-6
-2.4373E-5	6.5072E-5	4.9775E-9	-1.3234E-6
-2.9442E-5	6.1271E-5	4.9629E-9	-1.3196E-6
-3.3908E-5	5.7005E-5	4.931E-9	-1.3158E-6
-3.7721E-5	5.2371E-5	4.9072E-9	-1.312E-6
-4.0849E-5	4.7472E-5	4.8971E-9	-1.3082E-6
-4.3273E-5	4.2413E-5	4.9014E-9	-1.3044E-6
-4.4995E-5	3.7301E-5	4.9142E-9	-1.3006E-6
-4.6029E-5	3.224E-5	4.9511E-9	-1.2968E-6
-4.6409E-5	2.7328E-5	4.9087E-9	-1.293E-6
-4.6179E-5	2.2658E-5	4.877E-9	-1.2892E-6
-4.5402E-5	1.8312E-5	4.856E-9	-1.2854E-6
-4.4147E-5	1.4361E-5	4.8515E-9	-1.2816E-6
-4.2496E-5	1.0864E-5	4.876E-9	-1.2777E-6
-4.0538E-5	7.8636E-6	4.8913E-9	-1.2739E-6
-3.8366E-5	5.3888E-6	4.8953E-9	-1.2702E-6
-3.6076E-5	3.4522E-6	4.8617E-9	-1.2664E-6
-3.3764E-5	2.0506E-6	4.8363E-9	-1.2625E-6
-3.1524E-5	1.165E-6	4.8279E-9	-1.2587E-6
-2.9443E-5	7.6149E-7	4.872E-9	-1.2549E-6
-2.7602E-5	7.922E-7	4.8735E-9	-1.2511E-6
-2.6072E-5	1.1968E-6	4.8212E-9	-1.2473E-6
-2.4913E-5	1.9042E-6	4.8197E-9	-1.2435E-6
-2.417E-5	2.8345E-6	4.8221E-9	-1.2396E-6
-2.3877E-5	3.9016E-6	4.8387E-9	-1.2358E-6
-2.4049E-5	5.015E-6	4.8633E-9	-1.232E-6
-2.4689E-5	6.0828E-6	4.8715E-9	-1.2282E-6
-2.5782E-5	7.0142E-6	4.8789E-9	-1.2244E-6
-2.7299E-5	7.7217E-6	4.882E-9	-1.2206E-6
-2.9195E-5	8.1241E-6	4.8753E-9	-1.2168E-6
-3.1414E-5	8.1481E-6	4.8729E-9	-1.213E-6
-3.3886E-5	7.7311E-6	4.8924E-9	-1.2092E-6
-3.6532E-5	6.8222E-6	4.9163E-9	-1.2054E-6
-3.9265E-5	5.3844E-6	4.9453E-9	-1.2016E-6
-4.1992E-5	3.3954E-6	4.9186E-9	-1.1978E-6
-4.4617E-5	8.4849E-7	4.909E-9	-1.194E-6
-4.7043E-5	-2.2473E-6	4.8661E-9	-1.1902E-6
-4.9175E-5	-5.8671E-6	4.8659E-9	-1.1864E-6
-5.0924E-5	-9.9706E-6	4.8838E-9	-1.1825E-6
-5.2204E-5	-1.4503E-5	4.9167E-9	-1.1788E-6
-5.2942E-5	-1.9396E-5	4.9325E-9	-1.175E-6
-5.3074E-5	-2.457E-5	4.903E-9	-1.1712E-6
-5.255E-5	-2.9935E-5	4.8764E-9	-1.1674E-6
-5.1334E-5	-3.5394E-5	4.8485E-9	-1.1636E-6
-4.9404E-5	-4.0844E-5	4.8289E-9	-1.1597E-6
-4.6755E-5	-4.6179E-5	4.8964E-9	-1.1559E-6
-4.3401E-5	-5.1294E-5	4.9191E-9	-1.1521E-6
-3.9368E-5	-5.6085E-5	4.9339E-9	-1.1483E-6
-3.47E-5	-6.0453E-5	4.9105E-9	-1.1446E-6
-2.9456E-5	-6.4307E-5	4.8436E-9	-1.1408E-6
-2.3709E-5	-6.7564E-5	4.8466E-9	-1.1369E-6
-1.7542E-5	-7.0154E-5	4.8495E-9	-1.1331E-6
-1.1049E-5	-7.2019E-5	4.861E-9	-1.1292E-6
-4.3339E-6	-7.3118E-5	4.9256E-9	-1.1255E-6
2.497E-6	-7.3424E-5	4.9102E-9	-1.1217E-6
9.3328E-6	-7.2925E-5	4.9067E-9	-1.1179E-6
1.6063E-5	-7.1628E-5	4.8969E-9	-1.1141E-6
2.2578E-5	-6.9557E-5	4.8827E-9	-1.1103E-6
2.8774E-5	-6.675E-5	4.918E-9	-1.1065E-6
3.4554E-5	-6.3261E-5	4.9066E-9	-1.1027E-6
3.9831E-5	-5.9157E-5	4.9229E-9	-1.0988E-6
4.453E-5	-5.4519E-5	4.9454E-9	-1.0951E-6
4.8586E-5	-4.9435E-5	4.8989E-9	-1.0913E-6
5.1952E-5	-4.4006E-5	4.8989E-9	-1.0875E-6
5.4594E-5	-3.8332E-5	4.8801E-9	-1.0837E-6
5.6497E-5	-3.2523E-5	4.859E-9	-1.0798E-6
5.766E-5	-2.6683E-5	4.8778E-9	-1.076E-6
5.8098E-5	-2.0919E-5	4.8893E-9	-1.0722E-6
5.7845E-5	-1.5332E-5	4.9207E-9	-1.0684E-6
5.6946E-5	-1.0014E-5	4.9258E-9	-1.0646E-6
5.5461E-5	-5.0499E-6	4.8984E-9	-1.0608E-6
5.3462E-5	-5.1379E-7	4.8785E-9	-1.057E-6
5.103E-5	3.534E-6	4.8829E-9	-1.0532E-6
4.8255E-5	7.0469E-6	4.9331E-9	-1.0493E-6
4.5231E-5	9.9934E-6	4.9866E-9	-1.0456E-6
4.2054E-5	1.2358E-5	5.0015E-9	-1.0418E-6
3.8823E-5	1.414E-5	4.9325E-9	-1.0381E-6
3.5633E-5	1.5355E-5	4.8959E-9	-1.0342E-6
3.2574E-5	1.6034E-5	4.8862E-9	-1.0304E-6
2.9729E-5	1.6221E-5	4.9079E-9	-1.0265E-6
2.7174E-5	1.5974E-5	4.9779E-9	-1.0227E-6
2.4971E-5	1.5361E-5	5.0203E-9	-1.019E-6
2.3171E-5	1.4459E-5	5.0083E-9	-1.0152E-6
2.1811E-5	1.3351E-5	5.0113E-9	-1.0114E-6
2.0913E-5	1.2127E-5	4.9841E-9	-1.0077E-6
2.0483E-5	1.0876E-5	4.9469E-9	-1.0039E-6
2.0514E-5	9.6892E-6	4.9159E-9	-1E-6
2.0981E-5	8.6531E-6	4.9339E-9	-9.9619E-7
2.1847E-5	7.8495E-6	4.9565E-9	-9.9239E-7
2.306E-5	7.3525E-6	4.9741E-9	-9.8861E-7
2.4558E-5	7.2263E-6	4.9584E-9	-9.8483E-7
2.6266E-5	7.524E-6	4.9312E-9	-9.8103E-7
2.8104E-5	8.2854E-6	4.9214E-9	-9.7722E-7
2.9984E-5	9.5362E-6	4.8945E-9	-9.734E-7
3.1815E-5	1.1287E-5	4.9248E-9	-9.6955E-7
3.3505E-5	1.3534E-5	4.9714E-9	-9.6576E-7
3.4964E-5	1.6257E-5	4.9792E-9	-9.6201E-7
