jMRUI Data Textfile

Filename: glu.txt

PointsInDataset: 32768     
DatasetsInFile: 1         
SamplingInterval: 3.3333E-2 
ZeroOrderPhase: 0E0       
BeginTime: 0E0       
TransmitterFrequency: 2.9722E8  
MagneticField: 0E0       
TypeOfNucleus: 0E0       
NameOfPatient: 
DateOfExperiment: 
Spectrometer: 
AdditionalInfo: 


Signal and FFT
sig(real)	sig(imag)	fft(real)	fft(imag)
Signal 1 out of 1 in file
5E0	-2.1856E-7	3.7026E-4	1.7016E-1
4.9489E0	-6.7639E-1	3.699E-4	1.704E-1
4.7994E0	-1.3373E0	3.7013E-4	1.7064E-1
4.5552E0	-1.968E0	3.7046E-4	1.7088E-1
4.2219E0	-2.5546E0	3.711E-4	1.7112E-1
3.8076E0	-3.084E0	3.72E-4	1.7136E-1
3.3219E0	-3.5448E0	3.7229E-4	1.716E-1
2.7763E0	-3.9271E0	3.719E-4	1.7184E-1
2.1836E0	-4.2228E0	3.7105E-4	1.7208E-1
1.5576E0	-4.4262E0	3.7006E-4	1.7232E-1
9.1281E-1	-4.5335E0	3.6988E-4	1.7257E-1
2.6428E-1	-4.5433E0	3.7007E-4	1.7281E-1
-3.7311E-1	-4.4567E0	3.7047E-4	1.7305E-1
-9.8477E-1	-4.2767E0	3.7149E-4	1.7329E-1
-1.5569E0	-4.0089E0	3.7203E-4	1.7353E-1
-2.0765E0	-3.6609E0	3.7188E-4	1.7377E-1
-2.5324E0	-3.2419E0	3.7138E-4	1.7401E-1
-2.9145E0	-2.7631E0	3.709E-4	1.7425E-1
-3.2149E0	-2.2368E0	3.7083E-4	1.7449E-1
-3.4277E0	-1.6764E0	3.7039E-4	1.7473E-1
-3.5492E0	-1.0962E0	3.698E-4	1.7497E-1
-3.5778E0	-5.1061E-1	3.6961E-4	1.7522E-1
-3.5143E0	6.5759E-2	3.6969E-4	1.7546E-1
-3.3618E0	6.1872E-1	3.6985E-4	1.757E-1
-3.1254E0	1.1348E0	3.7004E-4	1.7594E-1
-2.8125E0	1.6014E0	3.702E-4	1.7618E-1
-2.432E0	2.0075E0	3.7028E-4	1.7642E-1
-1.9947E0	2.3435E0	3.7005E-4	1.7666E-1
-1.5126E0	2.6016E0	3.6989E-4	1.769E-1
-9.9862E-1	2.776E0	3.6953E-4	1.7714E-1
-4.6664E-1	2.8631E0	3.6899E-4	1.7738E-1
6.9299E-2	2.8615E0	3.6862E-4	1.7763E-1
5.9507E-1	2.772E0	3.6867E-4	1.7787E-1
1.0969E0	2.5975E0	3.6897E-4	1.7811E-1
1.5617E0	2.3432E0	3.6896E-4	1.7835E-1
1.9775E0	2.0163E0	3.689E-4	1.7859E-1
2.3332E0	1.6254E0	3.6904E-4	1.7883E-1
2.6199E0	1.1812E0	3.693E-4	1.7907E-1
2.8299E0	6.9529E-1	3.6935E-4	1.7931E-1
2.9577E0	1.8042E-1	3.6859E-4	1.7955E-1
2.9998E0	-3.4998E-1	3.682E-4	1.798E-1
2.9551E0	-8.8219E-1	3.6875E-4	1.8004E-1
2.8243E0	-1.4024E0	3.6918E-4	1.8028E-1
2.6104E0	-1.8973E0	3.694E-4	1.8052E-1
2.3186E0	-2.3541E0	3.6913E-4	1.8076E-1
1.9556E0	-2.7609E0	3.6892E-4	1.81E-1
1.5304E0	-3.1074E0	3.6931E-4	1.8124E-1
1.0531E0	-3.3844E0	3.6995E-4	1.8149E-1
5.352E-1	-3.5847E0	3.7048E-4	1.8173E-1
-1.0895E-2	-3.7029E0	3.71E-4	1.8197E-1
-5.7205E-1	-3.7357E0	3.7123E-4	1.8221E-1
-1.1348E0	-3.6817E0	3.7122E-4	1.8245E-1
-1.6858E0	-3.5418E0	3.7102E-4	1.8269E-1
-2.2119E0	-3.3189E0	3.7075E-4	1.8293E-1
-2.7006E0	-3.0177E0	3.7066E-4	1.8317E-1
-3.1404E0	-2.6452E0	3.7107E-4	1.8341E-1
-3.521E0	-2.2096E0	3.7172E-4	1.8365E-1
-3.8335E0	-1.7209E0	3.7204E-4	1.839E-1
-4.0708E0	-1.1901E0	3.7221E-4	1.8414E-1
-4.2274E0	-6.2932E-1	3.724E-4	1.8438E-1
-4.3E0	-5.1171E-2	3.7246E-4	1.8462E-1
-4.2871E0	5.3134E-1	3.7229E-4	1.8486E-1
-4.1893E0	1.1052E0	3.7171E-4	1.851E-1
-4.0092E0	1.6577E0	3.7142E-4	1.8534E-1
-3.7513E0	2.1768E0	3.7198E-4	1.8558E-1
-3.4219E0	2.6513E0	3.7274E-4	1.8582E-1
-3.0288E0	3.0711E0	3.7281E-4	1.8606E-1
-2.5814E0	3.4275E0	3.7253E-4	1.863E-1
-2.0901E0	3.7135E0	3.7234E-4	1.8655E-1
-1.5663E0	3.9238E0	3.7213E-4	1.8679E-1
-1.022E0	4.0548E0	3.7177E-4	1.8703E-1
-4.6951E-1	4.1048E0	3.7186E-4	1.8727E-1
7.8912E-2	4.0743E0	3.7244E-4	1.8751E-1
6.1119E-1	3.9654E0	3.731E-4	1.8775E-1
1.1158E0	3.7822E0	3.7301E-4	1.8799E-1
1.5822E0	3.5302E0	3.7244E-4	1.8823E-1
2.0007E0	3.2167E0	3.7204E-4	1.8847E-1
2.3632E0	2.8503E0	3.7127E-4	1.8871E-1
2.6627E0	2.4406E0	3.7084E-4	1.8896E-1
2.8942E0	1.9981E0	3.7108E-4	1.892E-1
3.0541E0	1.5339E0	3.7132E-4	1.8944E-1
3.1409E0	1.0593E0	3.7135E-4	1.8968E-1
3.1547E0	5.8586E-1	3.7139E-4	1.8992E-1
3.0972E0	1.2459E-1	3.7123E-4	1.9016E-1
2.9722E0	-3.1384E-1	3.7111E-4	1.904E-1
2.7848E0	-7.1958E-1	3.7091E-4	1.9064E-1
2.5414E0	-1.0838E0	3.7076E-4	1.9089E-1
2.2499E0	-1.3989E0	3.7097E-4	1.9113E-1
1.9191E0	-1.6586E0	3.7098E-4	1.9137E-1
1.5586E0	-1.8581E0	3.7051E-4	1.9161E-1
1.1784E0	-1.9943E0	3.7043E-4	1.9185E-1
7.891E-1	-2.0656E0	3.7041E-4	1.9209E-1
4.0094E-1	-2.0723E0	3.7099E-4	1.9234E-1
2.4107E-2	-2.0161E0	3.7207E-4	1.9258E-1
-3.3174E-1	-1.9003E0	3.7237E-4	1.9282E-1
-6.5769E-1	-1.7296E0	3.7195E-4	1.9306E-1
-9.4575E-1	-1.5101E0	3.7157E-4	1.933E-1
-1.1891E0	-1.249E0	3.7141E-4	1.9354E-1
-1.382E0	-9.5426E-1	3.7148E-4	1.9378E-1
-1.5205E0	-6.3477E-1	3.7179E-4	1.9402E-1
-1.6016E0	-2.9977E-1	3.7294E-4	1.9427E-1
-1.6243E0	4.1283E-2	3.7417E-4	1.9451E-1
-1.5888E0	3.7891E-1	3.7421E-4	1.9475E-1
-1.4969E0	7.0389E-1	3.7344E-4	1.9499E-1
-1.3518E0	1.0075E0	3.7267E-4	1.9523E-1
-1.158E0	1.2817E0	3.7218E-4	1.9547E-1
-9.2113E-1	1.5192E0	3.7249E-4	1.9571E-1
-6.4786E-1	1.714E0	3.7304E-4	1.9595E-1
-3.4567E-1	1.8612E0	3.7338E-4	1.9619E-1
-2.2694E-2	1.9569E0	3.7378E-4	1.9643E-1
3.1258E-1	1.9989E0	3.7371E-4	1.9667E-1
6.5145E-1	1.9863E0	3.7329E-4	1.9692E-1
9.8527E-1	1.9195E0	3.7273E-4	1.9716E-1
1.3056E0	1.8002E0	3.7176E-4	1.974E-1
1.6046E0	1.6314E0	3.7098E-4	1.9764E-1
1.8748E0	1.4175E0	3.7102E-4	1.9788E-1
2.1099E0	1.1636E0	3.7139E-4	1.9812E-1
2.3042E0	8.7601E-1	3.7165E-4	1.9836E-1
2.4533E0	5.6146E-1	3.7166E-4	1.9861E-1
2.554E0	2.2743E-1	3.717E-4	1.9885E-1
2.6041E0	-1.1834E-1	3.714E-4	1.9909E-1
2.6028E0	-4.6792E-1	3.708E-4	1.9933E-1
2.5506E0	-8.1347E-1	3.7011E-4	1.9957E-1
2.4491E0	-1.1474E0	3.6987E-4	1.9981E-1
2.301E0	-1.4625E0	3.7055E-4	2.0005E-1
2.11E0	-1.7522E0	3.7105E-4	2.003E-1
1.881E0	-2.0106E0	3.7156E-4	2.0054E-1
1.6193E0	-2.2328E0	3.7184E-4	2.0078E-1
1.3312E0	-2.4148E0	3.7162E-4	2.0102E-1
1.0231E0	-2.5535E0	3.7202E-4	2.0126E-1
7.0195E-1	-2.6471E0	3.7214E-4	2.015E-1
3.7471E-1	-2.6947E0	3.7204E-4	2.0174E-1
4.8274E-2	-2.6967E0	3.7238E-4	2.0199E-1
-2.7068E-1	-2.6544E0	3.7245E-4	2.0223E-1
-5.7588E-1	-2.5702E0	3.7259E-4	2.0247E-1
-8.6158E-1	-2.4471E0	3.726E-4	2.0271E-1
-1.1227E0	-2.2892E0	3.7249E-4	2.0295E-1
-1.3549E0	-2.1013E0	3.73E-4	2.0319E-1
-1.5546E0	-1.8883E0	3.736E-4	2.0343E-1
-1.7194E0	-1.6559E0	3.7407E-4	2.0367E-1
-1.8475E0	-1.4099E0	3.746E-4	2.0392E-1
-1.9383E0	-1.156E0	3.7445E-4	2.0416E-1
-1.9919E0	-9.0012E-1	3.7371E-4	2.044E-1
-2.0094E0	-6.4766E-1	3.7333E-4	2.0464E-1
-1.9927E0	-4.0382E-1	3.733E-4	2.0488E-1
-1.9445E0	-1.7332E-1	3.7335E-4	2.0512E-1
-1.8679E0	3.9744E-2	3.7399E-4	2.0536E-1
-1.7668E0	2.3189E-1	3.747E-4	2.056E-1
-1.6454E0	4.0037E-1	3.7511E-4	2.0585E-1
-1.5081E0	5.432E-1	3.7463E-4	2.0609E-1
-1.3595E0	6.5915E-1	3.7356E-4	2.0633E-1
-1.2043E0	7.4779E-1	3.7322E-4	2.0657E-1
-1.0468E0	8.094E-1	3.7313E-4	2.0681E-1
-8.914E-1	8.4499E-1	3.7296E-4	2.0705E-1
-7.4202E-1	8.562E-1	3.7313E-4	2.0729E-1
-6.0215E-1	8.4523E-1	3.7401E-4	2.0754E-1
-4.7481E-1	8.1474E-1	3.7465E-4	2.0778E-1
-3.6244E-1	7.6779E-1	3.7422E-4	2.0802E-1
-2.6688E-1	7.0769E-1	3.7346E-4	2.0826E-1
-1.8936E-1	6.3791E-1	3.7283E-4	2.085E-1
-1.3048E-1	5.6196E-1	3.7225E-4	2.0874E-1
-9.0236E-2	4.8331E-1	3.7209E-4	2.0898E-1
-6.8041E-2	4.0528E-1	3.7212E-4	2.0923E-1
-6.2786E-2	3.3091E-1	3.7282E-4	2.0947E-1
-7.2895E-2	2.6296E-1	3.7363E-4	2.0971E-1
-9.64E-2	2.0377E-1	3.7405E-4	2.0995E-1
-1.3102E-1	1.5526E-1	3.7412E-4	2.1019E-1
-1.7426E-1	1.1884E-1	3.7369E-4	2.1043E-1
-2.2347E-1	9.5467E-2	3.7325E-4	2.1067E-1
-2.7599E-1	8.5569E-2	3.7315E-4	2.1091E-1
-3.2918E-1	8.9101E-2	3.7271E-4	2.1116E-1
-3.8053E-1	1.0556E-1	3.7244E-4	2.114E-1
-4.2775E-1	1.3402E-1	3.7234E-4	2.1164E-1
-4.688E-1	1.7319E-1	3.7251E-4	2.1188E-1
-5.0197E-1	2.215E-1	3.7296E-4	2.1212E-1
-5.2591E-1	2.7712E-1	3.7333E-4	2.1236E-1
-5.3965E-1	3.3806E-1	3.7353E-4	2.126E-1
-5.4263E-1	4.0227E-1	3.7324E-4	2.1285E-1
-5.347E-1	4.6769E-1	3.7223E-4	2.1309E-1
-5.1606E-1	5.323E-1	3.7146E-4	2.1333E-1
-4.8729E-1	5.9425E-1	3.7113E-4	2.1357E-1
-4.493E-1	6.5186E-1	3.7089E-4	2.1381E-1
-4.0322E-1	7.0371E-1	3.711E-4	2.1405E-1
-3.5044E-1	7.4866E-1	3.7164E-4	2.143E-1
-2.9247E-1	7.8588E-1	3.7235E-4	2.1454E-1
-2.3092E-1	8.1487E-1	3.7253E-4	2.1478E-1
-1.6738E-1	8.3548E-1	3.7191E-4	2.1502E-1
-1.0343E-1	8.4787E-1	3.7143E-4	2.1526E-1
-4.0527E-2	8.525E-1	3.7142E-4	2.155E-1
2.0056E-2	8.5009E-1	3.7161E-4	2.1575E-1
7.7246E-2	8.4162E-1	3.7163E-4	2.1599E-1
1.3023E-1	8.2821E-1	3.7175E-4	2.1623E-1
1.7847E-1	8.1112E-1	3.7235E-4	2.1647E-1
2.2173E-1	7.9165E-1	3.7283E-4	2.1671E-1
2.6007E-1	7.7111E-1	3.7264E-4	2.1695E-1
2.9386E-1	7.5074E-1	3.7226E-4	2.1719E-1
3.2373E-1	7.3166E-1	3.7171E-4	2.1744E-1
3.5055E-1	7.1478E-1	3.7156E-4	2.1768E-1
3.7538E-1	7.0081E-1	3.7201E-4	2.1792E-1
3.9945E-1	6.9019E-1	3.7247E-4	2.1816E-1
4.2408E-1	6.8306E-1	3.7261E-4	2.184E-1
4.506E-1	6.7924E-1	3.7253E-4	2.1864E-1
4.8032E-1	6.7825E-1	3.7195E-4	2.1889E-1
5.1446E-1	6.7929E-1	3.7131E-4	2.1913E-1
5.5405E-1	6.8127E-1	3.7098E-4	2.1937E-1
5.9991E-1	6.8286E-1	3.7069E-4	2.1961E-1
6.5261E-1	6.8251E-1	3.7117E-4	2.1985E-1
7.1237E-1	6.7851E-1	3.719E-4	2.201E-1
7.7907E-1	6.6904E-1	3.7241E-4	2.2034E-1
8.5222E-1	6.5228E-1	3.7258E-4	2.2058E-1
9.3094E-1	6.2644E-1	3.7187E-4	2.2082E-1
1.014E0	5.8984E-1	3.7099E-4	2.2106E-1
1.0998E0	5.4099E-1	3.7066E-4	2.213E-1
1.1863E0	4.7868E-1	3.7066E-4	2.2155E-1
1.2714E0	4.02E-1	3.7139E-4	2.2179E-1
1.3526E0	3.1044E-1	3.7237E-4	2.2203E-1
1.4273E0	2.0389E-1	3.7299E-4	2.2227E-1
1.4928E0	8.2731E-2	3.7293E-4	2.2251E-1
1.5464E0	-5.2195E-2	3.7243E-4	2.2275E-1
1.5855E0	-1.9955E-1	3.7201E-4	2.2299E-1
1.6077E0	-3.5753E-1	3.7175E-4	2.2324E-1
1.6107E0	-5.2385E-1	3.7188E-4	2.2348E-1
1.5927E0	-6.9585E-1	3.7266E-4	2.2372E-1
1.5523E0	-8.7046E-1	3.7338E-4	2.2396E-1
1.4885E0	-1.0444E0	3.7342E-4	2.242E-1
1.4009E0	-1.214E0	3.7282E-4	2.2444E-1
1.2896E0	-1.3758E0	3.7229E-4	2.2469E-1
1.1554E0	-1.5258E0	3.7213E-4	2.2493E-1
9.9965E-1	-1.6607E0	3.7184E-4	2.2517E-1
8.2432E-1	-1.7768E0	3.7202E-4	2.2541E-1
6.3194E-1	-1.8711E0	3.7247E-4	2.2565E-1
4.256E-1	-1.9406E0	3.7285E-4	2.259E-1
2.0884E-1	-1.9832E0	3.7286E-4	2.2614E-1
-1.4372E-2	-1.9969E0	3.7246E-4	2.2638E-1
-2.3978E-1	-1.9808E0	3.7217E-4	2.2662E-1
-4.629E-1	-1.9342E0	3.7195E-4	2.2686E-1
-6.7915E-1	-1.8573E0	3.7174E-4	2.271E-1
-8.8397E-1	-1.7512E0	3.7199E-4	2.2735E-1
-1.0729E0	-1.6176E0	3.7241E-4	2.2759E-1
-1.2418E0	-1.4587E0	3.7266E-4	2.2783E-1
-1.3868E0	-1.2777E0	3.7251E-4	2.2807E-1
-1.5047E0	-1.0782E0	3.7207E-4	2.2831E-1
-1.5926E0	-8.6449E-1	3.7188E-4	2.2855E-1
