jMRUI Data Textfile

Filename: MM_meas.txt

PointsInDataset: 32768
DatasetsInFile: 1
SamplingInterval: 0.033333333333
ZeroOrderPhase: 0E0  
BeginTime: 0E0 
TransmitterFrequency: 1.2323E8
MagneticField: 0E0
TypeOfNucleus: 0E0
NameOfPatient:
DateOfExperiment:
Spectrometer:
AdditionalInfo:


Signal and FFT
sig(real)	sig(imag)	fft(real)	fft(imag)
Signal 1 out of 1 in file
3.1298E+04	-9.0599E+01	1.5595E+04	1.1500E+03
3.1104E+04	-4.7862E+03	1.5595E+04	1.1515E+03
3.0125E+04	-9.2745E+03	1.5595E+04	1.1530E+03
2.8437E+04	-1.3500E+04	1.5595E+04	1.1545E+03
2.6118E+04	-1.7408E+04	1.5595E+04	1.1561E+03
2.3248E+04	-2.0942E+04	1.5595E+04	1.1576E+03
1.9903E+04	-2.4048E+04	1.5595E+04	1.1591E+03
1.6163E+04	-2.6670E+04	1.5595E+04	1.1606E+03
1.2104E+04	-2.8753E+04	1.5595E+04	1.1621E+03
7.8049E+03	-3.0242E+04	1.5595E+04	1.1636E+03
3.3438E+03	-3.1081E+04	1.5595E+04	1.1651E+03
-1.1979E+03	-3.1229E+04	1.5595E+04	1.1666E+03
-5.7242E+03	-3.0701E+04	1.5595E+04	1.1681E+03
-1.0136E+04	-2.9526E+04	1.5595E+04	1.1696E+03
-1.4334E+04	-2.7732E+04	1.5595E+04	1.1711E+03
-1.8218E+04	-2.5348E+04	1.5595E+04	1.1727E+03
-2.1697E+04	-2.2412E+04	1.5595E+04	1.1742E+03
-2.4710E+04	-1.8997E+04	1.5595E+04	1.1757E+03
-2.7204E+04	-1.5187E+04	1.5595E+04	1.1772E+03
-2.9124E+04	-1.1065E+04	1.5595E+04	1.1787E+03
-3.0419E+04	-6.7139E+03	1.5595E+04	1.1802E+03
-3.1045E+04	-2.2195E+03	1.5595E+04	1.1817E+03
-3.1008E+04	2.3226E+03	1.5595E+04	1.1832E+03
-3.0322E+04	6.8139E+03	1.5595E+04	1.1847E+03
-2.9003E+04	1.1156E+04	1.5595E+04	1.1862E+03
-2.7067E+04	1.5251E+04	1.5595E+04	1.1878E+03
-2.4539E+04	1.9006E+04	1.5595E+04	1.1893E+03
-2.1487E+04	2.2353E+04	1.5595E+04	1.1908E+03
-1.7988E+04	2.5230E+04	1.5595E+04	1.1923E+03
-1.4118E+04	2.7575E+04	1.5595E+04	1.1938E+03
-9.9558E+03	2.9324E+04	1.5595E+04	1.1953E+03
-5.5811E+03	3.0428E+04	1.5595E+04	1.1968E+03
-1.0893E+03	3.0879E+04	1.5595E+04	1.1983E+03
3.4207E+03	3.0684E+04	1.5595E+04	1.1998E+03
7.8504E+03	2.9849E+04	1.5595E+04	1.2013E+03
1.2101E+04	2.8377E+04	1.5595E+04	1.2029E+03
1.6079E+04	2.6286E+04	1.5595E+04	1.2044E+03
1.9709E+04	2.3634E+04	1.5595E+04	1.2059E+03
2.2923E+04	2.0490E+04	1.5595E+04	1.2074E+03
2.5650E+04	1.6926E+04	1.5595E+04	1.2089E+03
2.7822E+04	1.3009E+04	1.5595E+04	1.2104E+03
2.9380E+04	8.8149E+03	1.5595E+04	1.2119E+03
3.0307E+04	4.4363E+03	1.5595E+04	1.2134E+03
3.0599E+04	-2.8666E+01	1.5595E+04	1.2149E+03
3.0251E+04	-4.4823E+03	1.5595E+04	1.2165E+03
2.9258E+04	-8.8267E+03	1.5595E+04	1.2180E+03
2.7625E+04	-1.2968E+04	1.5595E+04	1.2195E+03
2.5404E+04	-1.6826E+04	1.5595E+04	1.2210E+03
2.2654E+04	-2.0326E+04	1.5595E+04	1.2225E+03
1.9439E+04	-2.3392E+04	1.5595E+04	1.2240E+03
1.5818E+04	-2.5948E+04	1.5595E+04	1.2255E+03
1.1860E+04	-2.7929E+04	1.5595E+04	1.2270E+03
7.6536E+03	-2.9310E+04	1.5595E+04	1.2285E+03
3.2955E+03	-3.0075E+04	1.5595E+04	1.2301E+03
-1.1191E+03	-3.0209E+04	1.5595E+04	1.2316E+03
-5.4943E+03	-2.9698E+04	1.5595E+04	1.2331E+03
-9.7370E+03	-2.8537E+04	1.5595E+04	1.2346E+03
-1.3764E+04	-2.6767E+04	1.5595E+04	1.2361E+03
-1.7495E+04	-2.4441E+04	1.5595E+04	1.2376E+03
-2.0848E+04	-2.1612E+04	1.5595E+04	1.2391E+03
-2.3744E+04	-1.8332E+04	1.5595E+04	1.2406E+03
-2.6111E+04	-1.4660E+04	1.5595E+04	1.2421E+03
-2.7914E+04	-1.0682E+04	1.5595E+04	1.2437E+03
-2.9130E+04	-6.4892E+03	1.5595E+04	1.2452E+03
-2.9733E+04	-2.1753E+03	1.5595E+04	1.2467E+03
-2.9699E+04	2.1681E+03	1.5595E+04	1.2482E+03
-2.9014E+04	6.4499E+03	1.5595E+04	1.2497E+03
-2.7710E+04	1.0584E+04	1.5595E+04	1.2512E+03
-2.5829E+04	1.4487E+04	1.5595E+04	1.2527E+03
-2.3416E+04	1.8073E+04	1.5595E+04	1.2542E+03
-2.0513E+04	2.1258E+04	1.5595E+04	1.2557E+03
-1.7171E+04	2.3966E+04	1.5595E+04	1.2573E+03
-1.3469E+04	2.6155E+04	1.5595E+04	1.2588E+03
-9.4967E+03	2.7791E+04	1.5595E+04	1.2603E+03
-5.3407E+03	2.8841E+04	1.5595E+04	1.2618E+03
-1.0891E+03	2.9270E+04	1.5595E+04	1.2633E+03
3.1705E+03	2.9056E+04	1.5595E+04	1.2648E+03
7.3509E+03	2.8221E+04	1.5595E+04	1.2663E+03
1.1365E+04	2.6799E+04	1.5595E+04	1.2678E+03
1.5126E+04	2.4823E+04	1.5595E+04	1.2693E+03
1.8546E+04	2.2326E+04	1.5595E+04	1.2709E+03
2.1546E+04	1.9350E+04	1.5595E+04	1.2724E+03
2.4077E+04	1.5969E+04	1.5595E+04	1.2739E+03
2.6096E+04	1.2265E+04	1.5595E+04	1.2754E+03
2.7562E+04	8.3201E+03	1.5595E+04	1.2769E+03
2.8432E+04	4.2173E+03	1.5595E+04	1.2784E+03
2.8676E+04	3.9569E+01	1.5595E+04	1.2799E+03
2.8305E+04	-4.1258E+03	1.5595E+04	1.2814E+03
2.7345E+04	-8.1904E+03	1.5595E+04	1.2829E+03
2.5817E+04	-1.2066E+04	1.5595E+04	1.2845E+03
2.3747E+04	-1.5664E+04	1.5595E+04	1.2860E+03
2.1166E+04	-1.8903E+04	1.5595E+04	1.2875E+03
1.8141E+04	-2.1726E+04	1.5595E+04	1.2890E+03
1.4748E+04	-2.4086E+04	1.5595E+04	1.2905E+03
1.1063E+04	-2.5931E+04	1.5595E+04	1.2920E+03
7.1614E+03	-2.7213E+04	1.5595E+04	1.2935E+03
3.1216E+03	-2.7893E+04	1.5595E+04	1.2950E+03
-9.7020E+02	-2.7974E+04	1.5595E+04	1.2965E+03
-5.0257E+03	-2.7471E+04	1.5595E+04	1.2981E+03
-8.9564E+03	-2.6396E+04	1.5595E+04	1.2996E+03
-1.2674E+04	-2.4764E+04	1.5595E+04	1.3011E+03
-1.6095E+04	-2.2598E+04	1.5595E+04	1.3026E+03
-1.9159E+04	-1.9957E+04	1.5595E+04	1.3041E+03
-2.1810E+04	-1.6909E+04	1.5595E+04	1.3056E+03
-2.3993E+04	-1.3525E+04	1.5595E+04	1.3071E+03
-2.5650E+04	-9.8717E+03	1.5595E+04	1.3086E+03
-2.6737E+04	-6.0216E+03	1.5595E+04	1.3101E+03
-2.7248E+04	-2.0586E+03	1.5595E+04	1.3117E+03
-2.7188E+04	1.9299E+03	1.5595E+04	1.3132E+03
-2.6560E+04	5.8569E+03	1.5595E+04	1.3147E+03
-2.5370E+04	9.6352E+03	1.5595E+04	1.3162E+03
-2.3631E+04	1.3182E+04	1.5595E+04	1.3177E+03
-2.1394E+04	1.6431E+04	1.5595E+04	1.3192E+03
-1.8720E+04	1.9323E+04	1.5595E+04	1.3207E+03
-1.5670E+04	2.1795E+04	1.5596E+04	1.3222E+03
-1.2306E+04	2.3786E+04	1.5596E+04	1.3237E+03
-8.6915E+03	2.5245E+04	1.5596E+04	1.3253E+03
-4.9078E+03	2.6158E+04	1.5596E+04	1.3268E+03
-1.0399E+03	2.6520E+04	1.5596E+04	1.3283E+03
2.8273E+03	2.6326E+04	1.5596E+04	1.3298E+03
6.6090E+03	2.5572E+04	1.5596E+04	1.3313E+03
1.0223E+04	2.4263E+04	1.5596E+04	1.3328E+03
1.3602E+04	2.2442E+04	1.5596E+04	1.3343E+03
1.6679E+04	2.0161E+04	1.5596E+04	1.3358E+03
1.9390E+04	1.7473E+04	1.5596E+04	1.3374E+03
2.1669E+04	1.4431E+04	1.5596E+04	1.3389E+03
2.3459E+04	1.1092E+04	1.5596E+04	1.3404E+03
2.4739E+04	7.5323E+03	1.5596E+04	1.3419E+03
2.5495E+04	3.8342E+03	1.5596E+04	1.3434E+03
2.5714E+04	7.9270E+01	1.5596E+04	1.3449E+03
2.5384E+04	-3.6510E+03	1.5596E+04	1.3464E+03
2.4500E+04	-7.2771E+03	1.5596E+04	1.3479E+03
2.3098E+04	-1.0728E+04	1.5596E+04	1.3494E+03
2.1220E+04	-1.3937E+04	1.5596E+04	1.3510E+03
1.8912E+04	-1.6833E+04	1.5596E+04	1.3525E+03
1.6218E+04	-1.9350E+04	1.5596E+04	1.3540E+03
1.3187E+04	-2.1426E+04	1.5596E+04	1.3555E+03
9.8908E+03	-2.3033E+04	1.5596E+04	1.3570E+03
6.4071E+03	-2.4150E+04	1.5596E+04	1.3585E+03
2.8129E+03	-2.4755E+04	1.5596E+04	1.3600E+03
-8.1429E+02	-2.4828E+04	1.5596E+04	1.3616E+03
-4.3984E+03	-2.4357E+04	1.5596E+04	1.3631E+03
-7.8680E+03	-2.3369E+04	1.5596E+04	1.3646E+03
-1.1152E+04	-2.1898E+04	1.5596E+04	1.3661E+03
-1.4182E+04	-1.9981E+04	1.5596E+04	1.3676E+03
-1.6885E+04	-1.7653E+04	1.5596E+04	1.3691E+03
-1.9199E+04	-1.4955E+04	1.5596E+04	1.3706E+03
-2.1089E+04	-1.1954E+04	1.5596E+04	1.3722E+03
-2.2527E+04	-8.7222E+03	1.5596E+04	1.3737E+03
-2.3485E+04	-5.3312E+03	1.5596E+04	1.3752E+03
-2.3935E+04	-1.8535E+03	1.5596E+04	1.3767E+03
-2.3858E+04	1.6387E+03	1.5596E+04	1.3782E+03
-2.3271E+04	5.0742E+03	1.5596E+04	1.3797E+03
-2.2203E+04	8.3817E+03	1.5596E+04	1.3812E+03
-2.0679E+04	1.1490E+04	1.5596E+04	1.3828E+03
-1.8727E+04	1.4328E+04	1.5596E+04	1.3843E+03
-1.6380E+04	1.6831E+04	1.5596E+04	1.3858E+03
-1.3699E+04	1.8957E+04	1.5596E+04	1.3873E+03
-1.0749E+04	2.0674E+04	1.5596E+04	1.3888E+03
-7.5978E+03	2.1947E+04	1.5596E+04	1.3903E+03
-4.3110E+03	2.2741E+04	1.5596E+04	1.3918E+03
-9.5613E+02	2.3031E+04	1.5596E+04	1.3934E+03
2.3966E+03	2.2828E+04	1.5596E+04	1.3949E+03
5.6764E+03	2.2149E+04	1.5596E+04	1.3964E+03
8.8121E+03	2.1013E+04	1.5596E+04	1.3979E+03
1.1733E+04	1.9440E+04	1.5596E+04	1.3994E+03
1.4373E+04	1.7455E+04	1.5596E+04	1.4009E+03
1.6688E+04	1.5110E+04	1.5596E+04	1.4024E+03
1.8638E+04	1.2467E+04	1.5596E+04	1.4040E+03
2.0184E+04	9.5847E+03	1.5596E+04	1.4055E+03
2.1286E+04	6.5241E+03	1.5596E+04	1.4070E+03
2.1913E+04	3.3467E+03	1.5596E+04	1.4085E+03
2.2067E+04	1.2053E+02	1.5596E+04	1.4100E+03
2.1760E+04	-3.0846E+03	1.5596E+04	1.4115E+03
2.1001E+04	-6.1988E+03	1.5596E+04	1.4130E+03
1.9802E+04	-9.1526E+03	1.5596E+04	1.4146E+03
1.8180E+04	-1.1880E+04	1.5596E+04	1.4161E+03
1.6182E+04	-1.4334E+04	1.5596E+04	1.4176E+03
1.3862E+04	-1.6470E+04	1.5596E+04	1.4191E+03
1.1272E+04	-1.8245E+04	1.5596E+04	1.4206E+03
8.4660E+03	-1.9614E+04	1.5596E+04	1.4221E+03
5.5003E+03	-2.0542E+04	1.5596E+04	1.4237E+03
2.4398E+03	-2.1024E+04	1.5596E+04	1.4252E+03
-6.4790E+02	-2.1064E+04	1.5596E+04	1.4267E+03
-3.6951E+03	-2.0664E+04	1.5596E+04	1.4282E+03
-6.6344E+03	-1.9828E+04	1.5596E+04	1.4297E+03
-9.4015E+03	-1.8566E+04	1.5596E+04	1.4312E+03
-1.1946E+04	-1.6917E+04	1.5596E+04	1.4327E+03
-1.4221E+04	-1.4929E+04	1.5596E+04	1.4343E+03
-1.6179E+04	-1.2647E+04	1.5596E+04	1.4358E+03
-1.7773E+04	-1.0118E+04	1.5596E+04	1.4373E+03
-1.8964E+04	-7.3919E+03	1.5596E+04	1.4388E+03
-1.9740E+04	-4.5302E+03	1.5596E+04	1.4403E+03
-2.0097E+04	-1.5974E+03	1.5596E+04	1.4418E+03
-2.0033E+04	1.3418E+03	1.5596E+04	1.4433E+03
-1.9542E+04	4.2228E+03	1.5596E+04	1.4449E+03
-1.8629E+04	6.9835E+03	1.5596E+04	1.4464E+03
-1.7326E+04	9.5720E+03	1.5596E+04	1.4479E+03
-1.5672E+04	1.1939E+04	1.5596E+04	1.4494E+03
-1.3707E+04	1.4035E+04	1.5596E+04	1.4509E+03
-1.1470E+04	1.5810E+04	1.5596E+04	1.4524E+03
-9.0048E+03	1.7222E+04	1.5596E+04	1.4539E+03
-6.3686E+03	1.8254E+04	1.5596E+04	1.4555E+03
-3.6223E+03	1.8897E+04	1.5596E+04	1.4570E+03
-8.2693E+02	1.9139E+04	1.5596E+04	1.4585E+03
1.9564E+03	1.8971E+04	1.5596E+04	1.4600E+03
4.6684E+03	1.8390E+04	1.5596E+04	1.4615E+03
7.2567E+03	1.7422E+04	1.5596E+04	1.4630E+03
9.6706E+03	1.6099E+04	1.5596E+04	1.4645E+03
1.1859E+04	1.4453E+04	1.5596E+04	1.4661E+03
1.3772E+04	1.2517E+04	1.5596E+04	1.4676E+03
1.5364E+04	1.0328E+04	1.5596E+04	1.4691E+03
1.6614E+04	7.9382E+03	1.5596E+04	1.4706E+03
