jMRUI Data Textfile

Filename: MM_meas.txt

PointsInDataset: 32768
DatasetsInFile: 1
SamplingInterval: 0.033333333333
ZeroOrderPhase: 0E0  
BeginTime: 0E0 
TransmitterFrequency: 1.2323E8
MagneticField: 0E0
TypeOfNucleus: 0E0
NameOfPatient:
DateOfExperiment:
Spectrometer:
AdditionalInfo:


Signal and FFT
sig(real)	sig(imag)	fft(real)	fft(imag)
Signal 1 out of 1 in file
1.6194E+04	-3.3041E+01	8.0932E+03	3.3561E+02
1.6143E+04	-1.4363E+03	8.0932E+03	3.3638E+02
1.5961E+04	-2.8243E+03	8.0932E+03	3.3716E+02
1.5654E+04	-4.1884E+03	8.0932E+03	3.3794E+02
1.5227E+04	-5.5197E+03	8.0932E+03	3.3872E+02
1.4687E+04	-6.8093E+03	8.0932E+03	3.3950E+02
1.4039E+04	-8.0484E+03	8.0932E+03	3.4027E+02
1.3288E+04	-9.2282E+03	8.0932E+03	3.4105E+02
1.2440E+04	-1.0340E+04	8.0932E+03	3.4183E+02
1.1501E+04	-1.1374E+04	8.0932E+03	3.4261E+02
1.0476E+04	-1.2323E+04	8.0932E+03	3.4339E+02
9.3717E+03	-1.3178E+04	8.0932E+03	3.4416E+02
8.1970E+03	-1.3933E+04	8.0932E+03	3.4494E+02
6.9615E+03	-1.4584E+04	8.0933E+03	3.4572E+02
5.6749E+03	-1.5126E+04	8.0933E+03	3.4650E+02
4.3467E+03	-1.5554E+04	8.0933E+03	3.4728E+02
2.9868E+03	-1.5864E+04	8.0933E+03	3.4805E+02
1.6056E+03	-1.6056E+04	8.0933E+03	3.4883E+02
2.1353E+02	-1.6128E+04	8.0933E+03	3.4961E+02
-1.1787E+03	-1.6080E+04	8.0933E+03	3.5039E+02
-2.5607E+03	-1.5911E+04	8.0933E+03	3.5117E+02
-3.9219E+03	-1.5622E+04	8.0933E+03	3.5194E+02
-5.2526E+03	-1.5217E+04	8.0933E+03	3.5272E+02
-6.5429E+03	-1.4699E+04	8.0933E+03	3.5350E+02
-7.7831E+03	-1.4072E+04	8.0933E+03	3.5428E+02
-8.9635E+03	-1.3340E+04	8.0933E+03	3.5506E+02
-1.0075E+04	-1.2508E+04	8.0933E+03	3.5583E+02
-1.1109E+04	-1.1584E+04	8.0933E+03	3.5661E+02
-1.2060E+04	-1.0575E+04	8.0933E+03	3.5739E+02
-1.2920E+04	-9.4883E+03	8.0933E+03	3.5817E+02
-1.3681E+04	-8.3324E+03	8.0933E+03	3.5895E+02
-1.4338E+04	-7.1152E+03	8.0933E+03	3.5972E+02
-1.4886E+04	-5.8464E+03	8.0933E+03	3.6050E+02
-1.5323E+04	-4.5360E+03	8.0933E+03	3.6128E+02
-1.5645E+04	-3.1940E+03	8.0933E+03	3.6206E+02
-1.5850E+04	-1.8305E+03	8.0933E+03	3.6284E+02
-1.5934E+04	-4.5548E+02	8.0933E+03	3.6361E+02
-1.5899E+04	9.2071E+02	8.0933E+03	3.6439E+02
-1.5746E+04	2.2877E+03	8.0933E+03	3.6517E+02
-1.5476E+04	3.6351E+03	8.0933E+03	3.6595E+02
-1.5091E+04	4.9525E+03	8.0933E+03	3.6673E+02
-1.4592E+04	6.2299E+03	8.0933E+03	3.6750E+02
-1.3985E+04	7.4581E+03	8.0933E+03	3.6828E+02
-1.3275E+04	8.6286E+03	8.0933E+03	3.6906E+02
-1.2468E+04	9.7324E+03	8.0933E+03	3.6984E+02
-1.1570E+04	1.0761E+04	8.0933E+03	3.7061E+02
-1.0586E+04	1.1706E+04	8.0933E+03	3.7139E+02
-9.5251E+03	1.2561E+04	8.0933E+03	3.7217E+02
-8.3956E+03	1.3322E+04	8.0933E+03	3.7295E+02
-7.2063E+03	1.3981E+04	8.0933E+03	3.7373E+02
-5.9661E+03	1.4534E+04	8.0933E+03	3.7450E+02
-4.6838E+03	1.4976E+04	8.0933E+03	3.7528E+02
-3.3694E+03	1.5304E+04	8.0933E+03	3.7606E+02
-2.0332E+03	1.5518E+04	8.0933E+03	3.7684E+02
-6.8528E+02	1.5616E+04	8.0933E+03	3.7761E+02
6.6409E+02	1.5597E+04	8.0933E+03	3.7839E+02
2.0048E+03	1.5460E+04	8.0933E+03	3.7917E+02
3.3270E+03	1.5208E+04	8.0933E+03	3.7995E+02
4.6209E+03	1.4843E+04	8.0933E+03	3.8073E+02
5.8768E+03	1.4369E+04	8.0933E+03	3.8150E+02
7.0850E+03	1.3789E+04	8.0934E+03	3.8228E+02
8.2361E+03	1.3106E+04	8.0934E+03	3.8306E+02
9.3221E+03	1.2328E+04	8.0934E+03	3.8384E+02
1.0336E+04	1.1460E+04	8.0934E+03	3.8461E+02
1.1270E+04	1.0509E+04	8.0934E+03	3.8539E+02
1.2116E+04	9.4830E+03	8.0934E+03	3.8617E+02
1.2868E+04	8.3885E+03	8.0934E+03	3.8695E+02
1.3522E+04	7.2345E+03	8.0934E+03	3.8772E+02
1.4073E+04	6.0304E+03	8.0934E+03	3.8850E+02
1.4518E+04	4.7854E+03	8.0934E+03	3.8928E+02
1.4852E+04	3.5089E+03	8.0934E+03	3.9006E+02
1.5073E+04	2.2103E+03	8.0934E+03	3.9084E+02
1.5181E+04	8.9950E+02	8.0934E+03	3.9161E+02
1.5175E+04	-4.1354E+02	8.0934E+03	3.9239E+02
1.5057E+04	-1.7188E+03	8.0934E+03	3.9317E+02
1.4826E+04	-3.0064E+03	8.0934E+03	3.9395E+02
1.4484E+04	-4.2664E+03	8.0934E+03	3.9472E+02
1.4035E+04	-5.4900E+03	8.0934E+03	3.9550E+02
1.3483E+04	-6.6684E+03	8.0934E+03	3.9628E+02
1.2833E+04	-7.7928E+03	8.0934E+03	3.9706E+02
1.2090E+04	-8.8546E+03	8.0934E+03	3.9784E+02
1.1258E+04	-9.8454E+03	8.0934E+03	3.9861E+02
1.0346E+04	-1.0759E+04	8.0934E+03	3.9939E+02
9.3594E+03	-1.1589E+04	8.0934E+03	4.0017E+02
8.3077E+03	-1.2329E+04	8.0934E+03	4.0095E+02
7.1983E+03	-1.2974E+04	8.0934E+03	4.0173E+02
6.0392E+03	-1.3518E+04	8.0934E+03	4.0250E+02
4.8395E+03	-1.3959E+04	8.0934E+03	4.0328E+02
3.6088E+03	-1.4294E+04	8.0934E+03	4.0406E+02
2.3565E+03	-1.4521E+04	8.0934E+03	4.0484E+02
1.0922E+03	-1.4639E+04	8.0934E+03	4.0562E+02
-1.7476E+02	-1.4646E+04	8.0934E+03	4.0639E+02
-1.4350E+03	-1.4544E+04	8.0934E+03	4.0717E+02
-2.6790E+03	-1.4334E+04	8.0934E+03	4.0795E+02
-3.8976E+03	-1.4018E+04	8.0934E+03	4.0873E+02
-5.0814E+03	-1.3599E+04	8.0934E+03	4.0951E+02
-6.2213E+03	-1.3079E+04	8.0934E+03	4.1028E+02
-7.3094E+03	-1.2464E+04	8.0934E+03	4.1106E+02
-8.3382E+03	-1.1758E+04	8.0934E+03	4.1184E+02
-9.3003E+03	-1.0969E+04	8.0934E+03	4.1262E+02
-1.0188E+04	-1.0101E+04	8.0934E+03	4.1340E+02
-1.0994E+04	-9.1614E+03	8.0934E+03	4.1418E+02
-1.1715E+04	-8.1577E+03	8.0934E+03	4.1495E+02
-1.2344E+04	-7.0984E+03	8.0934E+03	4.1573E+02
-1.2879E+04	-5.9915E+03	8.0934E+03	4.1651E+02
-1.3315E+04	-4.8456E+03	8.0934E+03	4.1729E+02
-1.3648E+04	-3.6690E+03	8.0934E+03	4.1807E+02
-1.3877E+04	-2.4709E+03	8.0934E+03	4.1885E+02
-1.4002E+04	-1.2605E+03	8.0934E+03	4.1962E+02
-1.4023E+04	-4.6990E+01	8.0934E+03	4.2040E+02
-1.3938E+04	1.1603E+03	8.0934E+03	4.2118E+02
-1.3748E+04	2.3523E+03	8.0934E+03	4.2196E+02
-1.3457E+04	3.5204E+03	8.0934E+03	4.2274E+02
-1.3067E+04	4.6562E+03	8.0934E+03	4.2352E+02
-1.2582E+04	5.7512E+03	8.0934E+03	4.2430E+02
-1.2006E+04	6.7971E+03	8.0934E+03	4.2507E+02
-1.1342E+04	7.7857E+03	8.0934E+03	4.2585E+02
-1.0598E+04	8.7106E+03	8.0934E+03	4.2663E+02
-9.7784E+03	9.5657E+03	8.0934E+03	4.2741E+02
-8.8911E+03	1.0345E+04	8.0934E+03	4.2819E+02
-7.9425E+03	1.1042E+04	8.0934E+03	4.2897E+02
-6.9396E+03	1.1652E+04	8.0934E+03	4.2974E+02
-5.8904E+03	1.2170E+04	8.0934E+03	4.3052E+02
-4.8036E+03	1.2596E+04	8.0934E+03	4.3130E+02
-3.6875E+03	1.2925E+04	8.0935E+03	4.3208E+02
-2.5506E+03	1.3156E+04	8.0935E+03	4.3286E+02
-1.4015E+03	1.3286E+04	8.0935E+03	4.3364E+02
-2.4877E+02	1.3316E+04	8.0935E+03	4.3441E+02
8.9888E+02	1.3247E+04	8.0935E+03	4.3519E+02
2.0328E+03	1.3080E+04	8.0935E+03	4.3597E+02
3.1443E+03	1.2816E+04	8.0935E+03	4.3675E+02
4.2250E+03	1.2457E+04	8.0935E+03	4.3753E+02
5.2672E+03	1.2007E+04	8.0935E+03	4.3831E+02
6.2639E+03	1.1470E+04	8.0935E+03	4.3909E+02
7.2076E+03	1.0852E+04	8.0935E+03	4.3986E+02
8.0912E+03	1.0157E+04	8.0935E+03	4.4064E+02
8.9078E+03	9.3897E+03	8.0935E+03	4.4142E+02
9.6523E+03	8.5571E+03	8.0935E+03	4.4220E+02
1.0320E+04	7.6663E+03	8.0935E+03	4.4298E+02
1.0907E+04	6.7245E+03	8.0935E+03	4.4376E+02
1.1409E+04	5.7389E+03	8.0935E+03	4.4453E+02
1.1821E+04	4.7167E+03	8.0935E+03	4.4531E+02
1.2142E+04	3.6661E+03	8.0935E+03	4.4609E+02
1.2370E+04	2.5953E+03	8.0935E+03	4.4687E+02
1.2506E+04	1.5126E+03	8.0935E+03	4.4765E+02
1.2546E+04	4.2628E+02	8.0935E+03	4.4843E+02
1.2491E+04	-6.5551E+02	8.0935E+03	4.4920E+02
1.2344E+04	-1.7249E+03	8.0935E+03	4.4998E+02
1.2105E+04	-2.7740E+03	8.0935E+03	4.5076E+02
1.1778E+04	-3.7951E+03	8.0935E+03	4.5154E+02
1.1366E+04	-4.7804E+03	8.0935E+03	4.5232E+02
1.0871E+04	-5.7224E+03	8.0935E+03	4.5310E+02
1.0298E+04	-6.6147E+03	8.0935E+03	4.5388E+02
9.6532E+03	-7.4515E+03	8.0935E+03	4.5465E+02
8.9411E+03	-8.2268E+03	8.0935E+03	4.5543E+02
8.1676E+03	-8.9346E+03	8.0935E+03	4.5621E+02
7.3382E+03	-9.5695E+03	8.0935E+03	4.5699E+02
6.4601E+03	-1.0128E+04	8.0935E+03	4.5777E+02
5.5405E+03	-1.0607E+04	8.0935E+03	4.5855E+02
4.5866E+03	-1.1004E+04	8.0935E+03	4.5933E+02
3.6060E+03	-1.1315E+04	8.0935E+03	4.6011E+02
2.6059E+03	-1.1539E+04	8.0935E+03	4.6088E+02
1.5940E+03	-1.1674E+04	8.0935E+03	4.6166E+02
5.7803E+02	-1.1722E+04	8.0935E+03	4.6244E+02
-4.3428E+02	-1.1683E+04	8.0935E+03	4.6322E+02
-1.4352E+03	-1.1556E+04	8.0935E+03	4.6400E+02
-2.4172E+03	-1.1343E+04	8.0935E+03	4.6478E+02
-3.3733E+03	-1.1047E+04	8.0935E+03	4.6556E+02
-4.2968E+03	-1.0671E+04	8.0935E+03	4.6634E+02
-5.1811E+03	-1.0219E+04	8.0935E+03	4.6712E+02
-6.0192E+03	-9.6942E+03	8.0935E+03	4.6790E+02
-6.8049E+03	-9.1006E+03	8.0935E+03	4.6867E+02
-7.5333E+03	-8.4438E+03	8.0935E+03	4.6945E+02
-8.1997E+03	-7.7296E+03	8.0935E+03	4.7023E+02
-8.7997E+03	-6.9639E+03	8.0935E+03	4.7101E+02
-9.3287E+03	-6.1527E+03	8.0935E+03	4.7179E+02
-9.7826E+03	-5.3020E+03	8.0935E+03	4.7257E+02
-1.0159E+04	-4.4188E+03	8.0935E+03	4.7335E+02
-1.0458E+04	-3.5101E+03	8.0935E+03	4.7413E+02
-1.0676E+04	-2.5832E+03	8.0935E+03	4.7491E+02
-1.0812E+04	-1.6450E+03	8.0935E+03	4.7569E+02
-1.0866E+04	-7.0274E+02	8.0935E+03	4.7647E+02
-1.0838E+04	2.3664E+02	8.0935E+03	4.7725E+02
-1.0729E+04	1.1662E+03	8.0935E+03	4.7803E+02
-1.0542E+04	2.0789E+03	8.0935E+03	4.7881E+02
-1.0278E+04	2.9678E+03	8.0935E+03	4.7959E+02
-9.9386E+03	3.8262E+03	8.0935E+03	4.8037E+02
-9.5277E+03	4.6484E+03	8.0935E+03	4.8115E+02
-9.0497E+03	5.4287E+03	8.0935E+03	4.8193E+02
-8.5087E+03	6.1618E+03	8.0935E+03	4.8270E+02
-7.9091E+03	6.8419E+03	8.0935E+03	4.8348E+02
-7.2554E+03	7.4640E+03	8.0935E+03	4.8426E+02
-6.5534E+03	8.0246E+03	8.0935E+03	4.8504E+02
-5.8090E+03	8.5205E+03	8.0935E+03	4.8582E+02
-5.0284E+03	8.9486E+03	8.0935E+03	4.8660E+02
-4.2176E+03	9.3056E+03	8.0935E+03	4.8738E+02
-3.3827E+03	9.5889E+03	8.0935E+03	4.8816E+02
-2.5304E+03	9.7978E+03	8.0935E+03	4.8894E+02
-1.6671E+03	9.9320E+03	8.0935E+03	4.8972E+02
-7.9972E+02	9.9912E+03	8.0935E+03	4.9050E+02
6.5251E+01	9.9750E+03	8.0935E+03	4.9128E+02
9.2122E+02	9.8837E+03	8.0935E+03	4.9206E+02
1.7621E+03	9.7193E+03	8.0935E+03	4.9284E+02
2.5818E+03	9.4843E+03	8.0935E+03	4.9362E+02
3.3744E+03	9.1811E+03	8.0935E+03	4.9440E+02
4.1338E+03	8.8122E+03	8.0936E+03	4.9518E+02
4.8544E+03	8.3805E+03	8.0936E+03	4.9596E+02
5.5315E+03	7.8903E+03	8.0936E+03	4.9674E+02
6.1609E+03	7.3463E+03	8.0936E+03	4.9752E+02
6.7382E+03	6.7531E+03	8.0936E+03	4.9830E+02
7.2593E+03	6.1155E+03	8.0936E+03	4.9908E+02
7.7202E+03	5.4383E+03	8.0936E+03	4.9986E+02
8.1186E+03	4.7272E+03	8.0936E+03	5.0064E+02
