jMRUI Data Textfile

Filename: NAA_AcetylMoiety.txt

PointsInDataset: 32768     
DatasetsInFile: 1         
SamplingInterval: 3.3333E-2 
ZeroOrderPhase: 0E0       
BeginTime: 0E0       
TransmitterFrequency: 2.9722E8  
MagneticField: 0E0       
TypeOfNucleus: 0E0       
NameOfPatient: 
DateOfExperiment: 
Spectrometer: 
AdditionalInfo: 


Signal and FFT
sig(real)	sig(imag)	fft(real)	fft(imag)
Signal 1 out of 1 in file
3E0	-1.3113E-7	-1.1109E-5	1.2587E-1
2.9572E0	-5.0025E-1	-1.2094E-5	1.2601E-1
2.8316E0	-9.8621E-1	-1.1643E-5	1.2616E-1
2.6267E0	-1.4443E0	-1.0931E-5	1.263E-1
2.3484E0	-1.8617E0	-1.1321E-5	1.2645E-1
2.0044E0	-2.2267E0	-1.1777E-5	1.2659E-1
1.6045E0	-2.5292E0	-1.1161E-5	1.2674E-1
1.1599E0	-2.7606E0	-1.0947E-5	1.2688E-1
6.8302E-1	-2.9146E0	-1.0263E-5	1.2703E-1
1.8726E-1	-2.9869E0	-9.7242E-6	1.2717E-1
-3.1348E-1	-2.9755E0	-1.0436E-5	1.2731E-1
-8.0517E-1	-2.8808E0	-1.2466E-5	1.2746E-1
-1.274E0	-2.7054E0	-1.4125E-5	1.276E-1
-1.707E0	-2.4544E0	-1.4679E-5	1.2775E-1
-2.0919E0	-2.1347E0	-1.4744E-5	1.2789E-1
-2.418E0	-1.7554E0	-1.5135E-5	1.2804E-1
-2.6762E0	-1.3272E0	-1.5565E-5	1.2818E-1
-2.8593E0	-8.6199E-1	-1.5346E-5	1.2833E-1
-2.9623E0	-3.729E-1	-1.5042E-5	1.2847E-1
-2.9822E0	1.2637E-1	-1.5165E-5	1.2862E-1
-2.9185E0	6.2184E-1	-1.5555E-5	1.2876E-1
-2.7732E0	1.0996E0	-1.5692E-5	1.2891E-1
-2.5503E0	1.5464E0	-1.4403E-5	1.2906E-1
-2.256E0	1.9495E0	-1.3566E-5	1.292E-1
-1.8987E0	2.2979E0	-1.5248E-5	1.2934E-1
-1.4885E0	2.5817E0	-1.6868E-5	1.2949E-1
-1.0367E0	2.7931E0	-1.5329E-5	1.2964E-1
-5.5619E-1	2.9261E0	-1.3831E-5	1.2978E-1
-6.0329E-2	2.9771E0	-1.2572E-5	1.2993E-1
4.3695E-1	2.9446E0	-1.1393E-5	1.3007E-1
9.2173E-1	2.8298E0	-1.223E-5	1.3021E-1
1.3804E0	2.6357E0	-1.3588E-5	1.3036E-1
1.8002E0	2.3679E0	-1.4691E-5	1.305E-1
2.1694E0	2.0339E0	-1.5809E-5	1.3065E-1
2.4776E0	1.6431E0	-1.6518E-5	1.3079E-1
2.7162E0	1.2066E0	-1.5739E-5	1.3094E-1
2.8786E0	7.3642E-1	-1.5495E-5	1.3108E-1
2.9604E0	2.459E-1	-1.5393E-5	1.3123E-1
2.9591E0	-2.5124E-1	-1.5703E-5	1.3137E-1
2.875E0	-7.4108E-1	-1.6781E-5	1.3152E-1
2.7104E0	-1.2099E0	-1.5782E-5	1.3166E-1
2.47E0	-1.6446E0	-1.3917E-5	1.3181E-1
2.1605E0	-2.033E0	-1.2041E-5	1.3195E-1
1.7906E0	-2.3642E0	-1.255E-5	1.321E-1
1.3709E0	-2.6291E0	-1.4533E-5	1.3224E-1
9.129E-1	-2.8201E0	-1.4634E-5	1.3239E-1
4.2962E-1	-2.9321E0	-1.5015E-5	1.3253E-1
-6.5437E-2	-2.9619E0	-1.5423E-5	1.3268E-1
-5.584E-1	-2.9087E0	-1.546E-5	1.3282E-1
-1.0355E0	-2.7741E0	-1.5071E-5	1.3297E-1
-1.4833E0	-2.5619E0	-1.5348E-5	1.3311E-1
-1.8893E0	-2.278E0	-1.7444E-5	1.3325E-1
-2.2422E0	-1.9304E0	-1.9885E-5	1.334E-1
-2.5321E0	-1.529E0	-1.9028E-5	1.3355E-1
-2.7509E0	-1.085E0	-1.6957E-5	1.3369E-1
-2.8925E0	-6.1078E-1	-1.6937E-5	1.3384E-1
-2.9531E0	-1.1974E-1	-1.6794E-5	1.3398E-1
-2.9309E0	3.744E-1	-1.6328E-5	1.3413E-1
-2.8267E0	8.5778E-1	-1.6142E-5	1.3427E-1
-2.6433E0	1.3169E0	-1.6399E-5	1.3442E-1
-2.386E0	1.7389E0	-1.6577E-5	1.3456E-1
-2.062E0	2.1119E0	-1.6802E-5	1.3471E-1
-1.6804E0	2.4256E0	-1.6069E-5	1.3485E-1
-1.252E0	2.6712E0	-1.5691E-5	1.35E-1
-7.8868E-1	2.8418E0	-1.602E-5	1.3514E-1
-3.0355E-1	2.9328E0	-1.7513E-5	1.3529E-1
1.8982E-1	2.9415E0	-1.8036E-5	1.3543E-1
6.776E-1	2.8679E0	-1.6827E-5	1.3558E-1
1.1462E0	2.714E0	-1.5523E-5	1.3572E-1
1.5824E0	2.4841E0	-1.4821E-5	1.3587E-1
1.974E0	2.1848E0	-1.4266E-5	1.3601E-1
2.3101E0	1.8245E0	-1.5984E-5	1.3616E-1
2.5814E0	1.4133E0	-1.7876E-5	1.363E-1
2.7802E0	9.6264E-1	-1.7974E-5	1.3645E-1
2.9011E0	4.853E-1	-1.8217E-5	1.3659E-1
2.9406E0	-5.3738E-3	-1.8445E-5	1.3674E-1
2.8977E0	-4.9564E-1	-1.7301E-5	1.3689E-1
2.7737E0	-9.7175E-1	-1.5533E-5	1.3703E-1
2.5721E0	-1.4204E0	-1.3805E-5	1.3718E-1
2.2986E0	-1.829E0	-1.1956E-5	1.3732E-1
1.9608E0	-2.1862E0	-9.8303E-6	1.3747E-1
1.5682E0	-2.482E0	-9.4195E-6	1.3761E-1
1.132E0	-2.708E0	-1.1193E-5	1.3775E-1
6.6428E-1	-2.8582E0	-1.2483E-5	1.379E-1
1.7821E-1	-2.9281E0	-1.2568E-5	1.3804E-1
-3.126E-1	-2.9161E0	-1.2147E-5	1.3819E-1
-7.9438E-1	-2.8223E0	-1.2858E-5	1.3833E-1
-1.2537E0	-2.6496E0	-1.2957E-5	1.3848E-1
-1.6776E0	-2.4027E0	-1.2471E-5	1.3862E-1
-2.0543E0	-2.0887E0	-1.2881E-5	1.3877E-1
-2.3733E0	-1.7163E0	-1.3074E-5	1.3891E-1
-2.6256E0	-1.2961E0	-1.3145E-5	1.3906E-1
-2.8042E0	-8.398E-1	-1.4124E-5	1.392E-1
-2.9043E0	-3.6021E-1	-1.6628E-5	1.3934E-1
-2.9229E0	1.2921E-1	-1.8053E-5	1.3949E-1
-2.8596E0	6.1475E-1	-1.6013E-5	1.3964E-1
-2.7163E0	1.0828E0	-1.3234E-5	1.3978E-1
-2.497E0	1.5203E0	-1.295E-5	1.3993E-1
-2.2078E0	1.915E0	-1.5245E-5	1.4007E-1
-1.857E0	2.2558E0	-1.7543E-5	1.4022E-1
-1.4544E0	2.5333E0	-1.756E-5	1.4036E-1
-1.0112E0	2.7396E0	-1.6611E-5	1.4051E-1
-5.3993E-1	2.8691E0	-1.4547E-5	1.4066E-1
-5.3801E-2	2.9182E0	-1.3522E-5	1.408E-1
4.3358E-1	2.8856E0	-1.3336E-5	1.4095E-1
9.0855E-1	2.7721E0	-1.2541E-5	1.4109E-1
1.3578E0	2.581E0	-1.1473E-5	1.4123E-1
1.7688E0	2.3178E0	-1.1932E-5	1.4138E-1
2.1301E0	1.9897E0	-1.3405E-5	1.4152E-1
2.4315E0	1.6062E0	-1.4469E-5	1.4167E-1
2.6646E0	1.1778E0	-1.4552E-5	1.4181E-1
2.8229E0	7.1668E-1	-1.4429E-5	1.4196E-1
2.9022E0	2.3573E-1	-1.4018E-5	1.421E-1
2.9001E0	-2.5157E-1	-1.3908E-5	1.4225E-1
2.8167E0	-7.3156E-1	-1.3234E-5	1.424E-1
2.6545E0	-1.1908E0	-1.2427E-5	1.4254E-1
2.4181E0	-1.6164E0	-1.1563E-5	1.4269E-1
2.114E0	-1.9966E0	-1.0564E-5	1.4283E-1
1.7509E0	-2.3206E0	-1.0638E-5	1.4297E-1
1.339E0	-2.5795E0	-1.1303E-5	1.4312E-1
8.8977E-1	-2.7659E0	-1.353E-5	1.4326E-1
4.1586E-1	-2.8748E0	-1.4765E-5	1.4341E-1
-6.9446E-2	-2.9031E0	-1.425E-5	1.4355E-1
-5.5255E-1	-2.8501E0	-1.3832E-5	1.437E-1
-1.0199E0	-2.7173E0	-1.3118E-5	1.4385E-1
-1.4585E0	-2.5085E0	-1.2158E-5	1.4399E-1
-1.8559E0	-2.2295E0	-1.1299E-5	1.4413E-1
-2.2012E0	-1.8882E0	-1.2601E-5	1.4428E-1
-2.4847E0	-1.4942E0	-1.3289E-5	1.4443E-1
-2.6983E0	-1.0586E0	-1.223E-5	1.4457E-1
-2.8364E0	-5.935E-1	-1.1441E-5	1.4472E-1
-2.8948E0	-1.1207E-1	-1.1252E-5	1.4486E-1
-2.8722E0	3.7223E-1	-1.0913E-5	1.45E-1
-2.7692E0	8.4586E-1	-1.171E-5	1.4515E-1
-2.5886E0	1.2955E0	-1.2338E-5	1.4529E-1
-2.3356E0	1.7087E0	-1.2163E-5	1.4544E-1
-2.0174E0	2.0738E0	-1.3597E-5	1.4558E-1
-1.6428E0	2.3806E0	-1.5348E-5	1.4573E-1
-1.2224E0	2.6205E0	-1.558E-5	1.4587E-1
-7.6797E-1	2.787E0	-1.5306E-5	1.4602E-1
-2.9229E-1	2.8752E0	-1.4934E-5	1.4617E-1
1.9133E-1	2.883E0	-1.3608E-5	1.4631E-1
6.6932E-1	2.8099E0	-1.3043E-5	1.4646E-1
1.1283E0	2.6582E0	-1.235E-5	1.466E-1
1.5555E0	2.4321E0	-1.2802E-5	1.4674E-1
1.9388E0	2.138E0	-1.4747E-5	1.4689E-1
2.2677E0	1.7842E0	-1.5224E-5	1.4704E-1
2.5328E0	1.3806E0	-1.5143E-5	1.4718E-1
2.7269E0	9.3859E-1	-1.5328E-5	1.4733E-1
2.8445E0	4.7049E-1	-1.6449E-5	1.4747E-1
2.8824E0	-1.0535E-2	-1.6653E-5	1.4762E-1
2.8395E0	-4.9101E-1	-1.6061E-5	1.4777E-1
2.7171E0	-9.5748E-1	-1.4871E-5	1.4791E-1
2.5186E0	-1.3969E0	-1.3938E-5	1.4806E-1
2.2498E0	-1.7969E0	-1.244E-5	1.482E-1
1.918E0	-2.1464E0	-1.1805E-5	1.4835E-1
1.5327E0	-2.4356E0	-1.0929E-5	1.4849E-1
1.1047E0	-2.6564E0	-1.2532E-5	1.4863E-1
6.46E-1	-2.8027E0	-1.4661E-5	1.4878E-1
1.6943E-1	-2.8705E0	-1.4886E-5	1.4893E-1
-3.1163E-1	-2.8578E0	-1.3519E-5	1.4907E-1
-7.8371E-1	-2.765E0	-1.1689E-5	1.4922E-1
-1.2336E0	-2.5949E0	-1.0959E-5	1.4936E-1
-1.6487E0	-2.3521E0	-1.2599E-5	1.495E-1
-2.0174E0	-2.0437E0	-1.3294E-5	1.4965E-1
-2.3293E0	-1.6781E0	-1.3268E-5	1.498E-1
-2.5759E0	-1.2657E0	-1.4774E-5	1.4994E-1
-2.7502E0	-8.1814E-1	-1.5216E-5	1.5009E-1
-2.8474E0	-3.4787E-1	-1.4834E-5	1.5023E-1
-2.8648E0	1.3189E-1	-1.2938E-5	1.5038E-1
-2.8019E0	6.077E-1	-1.2145E-5	1.5052E-1
-2.6606E0	1.0662E0	-1.326E-5	1.5067E-1
-2.4448E0	1.4947E0	-1.3596E-5	1.5081E-1
-2.1607E0	1.881E0	-1.2951E-5	1.5096E-1
-1.8162E0	2.2145E0	-1.2371E-5	1.5111E-1
-1.421E0	2.4857E0	-1.1726E-5	1.5125E-1
-9.8626E-1	2.6872E0	-1.0347E-5	1.514E-1
-5.241E-1	2.8133E0	-9.62E-6	1.5154E-1
-4.7509E-2	2.8605E0	-1.0419E-5	1.5168E-1
4.3016E-1	2.8276E0	-1.246E-5	1.5183E-1
8.9552E-1	2.7156E0	-1.4822E-5	1.5197E-1
1.3356E0	2.5275E0	-1.4873E-5	1.5212E-1
1.7379E0	2.2687E0	-1.4121E-5	1.5227E-1
2.0914E0	1.9465E0	-1.4034E-5	1.5241E-1
2.3862E0	1.57E0	-1.231E-5	1.5256E-1
2.6139E0	1.1497E0	-1.101E-5	1.527E-1
2.7683E0	6.9743E-1	-1.0579E-5	1.5285E-1
2.8451E0	2.2586E-1	-1.2381E-5	1.5299E-1
2.8422E0	-2.5178E-1	-1.4083E-5	1.5314E-1
2.7596E0	-7.2212E-1	-1.4895E-5	1.5328E-1
2.5998E0	-1.172E0	-1.6973E-5	1.5343E-1
2.3673E0	-1.5888E0	-1.7572E-5	1.5358E-1
2.0686E0	-1.9608E0	-1.4873E-5	1.5372E-1
1.7121E0	-2.2778E0	-1.2751E-5	1.5387E-1
1.3079E0	-2.5308E0	-1.1096E-5	1.5401E-1
8.672E-1	-2.7127E0	-1.0426E-5	1.5416E-1
4.0248E-1	-2.8186E0	-1.0452E-5	1.543E-1
-7.3271E-2	-2.8455E0	-1.0628E-5	1.5445E-1
-5.4671E-1	-2.7927E0	-1.1403E-5	1.5459E-1
-1.0046E0	-2.6617E0	-1.0766E-5	1.5474E-1
-1.4341E0	-2.4562E0	-1.0751E-5	1.5488E-1
-1.8232E0	-2.182E0	-1.1013E-5	1.5503E-1
-2.161E0	-1.8468E0	-1.1531E-5	1.5517E-1
-2.4381E0	-1.4601E0	-1.0944E-5	1.5532E-1
-2.6468E0	-1.0328E0	-9.7728E-6	1.5546E-1
-2.7812E0	-5.7667E-1	-1.0014E-5	1.5561E-1
-2.8377E0	-1.0467E-1	-1.2424E-5	1.5575E-1
-2.8147E0	3.7001E-1	-1.2859E-5	1.559E-1
-2.7128E0	8.3407E-1	-1.2203E-5	1.5604E-1
-2.535E0	1.2745E0	-1.2733E-5	1.5619E-1
-2.2863E0	1.679E0	-1.4376E-5	1.5633E-1
-1.9737E0	2.0363E0	-1.5034E-5	1.5648E-1
-1.606E0	2.3364E0	-1.3458E-5	1.5663E-1
-1.1935E0	2.5708E0	-1.0326E-5	1.5677E-1
-7.4777E-1	2.7331E0	-1.0406E-5	1.5692E-1
-2.8135E-1	2.8188E0	-1.1662E-5	1.5706E-1
1.927E-1	2.8255E0	-1.1559E-5	1.5721E-1
6.611E-1	2.7531E0	-1.1059E-5	1.5735E-1
1.1107E0	2.6035E0	-9.949E-6	1.575E-1
1.529E0	2.3812E0	-1.0331E-5	1.5764E-1
1.9043E0	2.0922E0	-1.1947E-5	1.5779E-1
2.226E0	1.7448E0	-1.1245E-5	1.5793E-1
2.4851E0	1.3488E0	-1.0559E-5	1.5808E-1
2.6746E0	9.1512E-1	-1.1347E-5	1.5822E-1
2.789E0	4.5608E-1	-1.1729E-5	1.5837E-1
2.8253E0	-1.5489E-2	-1.2107E-5	1.5851E-1
2.7824E0	-4.8637E-1	-1.3977E-5	1.5866E-1
2.6615E0	-9.4339E-1	-1.5247E-5	1.588E-1
2.4663E0	-1.3737E0	-1.424E-5	1.5895E-1
2.202E0	-1.7654E0	-1.2668E-5	1.591E-1
1.8762E0	-2.1074E0	-1.1833E-5	1.5924E-1
1.498E0	-2.3901E0	-1.2194E-5	1.5939E-1
1.0781E0	-2.6058E0	-1.3608E-5	1.5953E-1
6.2819E-1	-2.7484E0	-1.2723E-5	1.5968E-1
1.6094E-1	-2.8139E0	-1.3114E-5	1.5982E-1
-3.1058E-1	-2.8006E0	-1.4154E-5	1.5997E-1
-7.7314E-1	-2.7088E0	-1.4736E-5	1.6011E-1
-1.2138E0	-2.5413E0	-1.6669E-5	1.6026E-1
-1.6202E0	-2.3026E0	-1.6324E-5	1.6041E-1
