jMRUI Data Textfile

Filename: PCr2.txt

PointsInDataset: 32768     
DatasetsInFile: 1         
SamplingInterval: 3.3333E-2 
ZeroOrderPhase: 0E0       
BeginTime: 0E0       
TransmitterFrequency: 2.9722E8  
MagneticField: 0E0       
TypeOfNucleus: 0E0       
NameOfPatient: 
DateOfExperiment: 
Spectrometer: 
AdditionalInfo: 


Signal and FFT
sig(real)	sig(imag)	fft(real)	fft(imag)
Signal 1 out of 1 in file
4E0	-1.7485E-7	1.5276E-4	-4.5712E-2
3.9768E0	1.8185E-1	1.5113E-4	-4.5519E-2
3.9097E0	3.5802E-1	1.5093E-4	-4.5326E-2
3.8E0	5.231E-1	1.5072E-4	-4.5133E-2
3.65E0	6.7192E-1	1.5046E-4	-4.494E-2
3.4626E0	7.9967E-1	1.513E-4	-4.4747E-2
3.2415E0	9.0209E-1	1.5179E-4	-4.4555E-2
2.9909E0	9.7547E-1	1.5136E-4	-4.4363E-2
2.7158E0	1.0168E0	1.5087E-4	-4.417E-2
2.4213E0	1.0238E0	1.507E-4	-4.3977E-2
2.1131E0	9.9507E-1	1.5163E-4	-4.3784E-2
1.7968E0	9.2992E-1	1.5224E-4	-4.3592E-2
1.4783E0	8.2857E-1	1.5287E-4	-4.3399E-2
1.1631E0	6.9208E-1	1.5411E-4	-4.3208E-2
8.5693E-1	5.2231E-1	1.5405E-4	-4.3017E-2
5.6478E-1	3.2187E-1	1.5261E-4	-4.2825E-2
2.9142E-1	9.4094E-2	1.5227E-4	-4.2632E-2
4.1001E-2	-1.5709E-1	1.5263E-4	-4.2439E-2
-1.8292E-1	-4.2723E-1	1.53E-4	-4.2247E-2
-3.775E-1	-7.1144E-1	1.5335E-4	-4.2055E-2
-5.4064E-1	-1.0045E0	1.5347E-4	-4.1862E-2
-6.7102E-1	-1.3012E0	1.5427E-4	-4.167E-2
-7.6813E-1	-1.5959E0	1.5489E-4	-4.1479E-2
-8.3222E-1	-1.8834E0	1.5487E-4	-4.1288E-2
-8.6436E-1	-2.1585E0	1.537E-4	-4.1096E-2
-8.6631E-1	-2.4164E0	1.5298E-4	-4.0904E-2
-8.4051E-1	-2.6524E0	1.5215E-4	-4.0711E-2
-7.9001E-1	-2.8628E0	1.5235E-4	-4.0518E-2
-7.1833E-1	-3.0441E0	1.5298E-4	-4.0326E-2
-6.2944E-1	-3.1936E0	1.5306E-4	-4.0134E-2
-5.276E-1	-3.3093E0	1.5231E-4	-3.9943E-2
-4.1725E-1	-3.3899E0	1.5102E-4	-3.975E-2
-3.0292E-1	-3.4348E0	1.5085E-4	-3.9557E-2
-1.8909E-1	-3.4443E0	1.5073E-4	-3.9365E-2
-8.0112E-2	-3.4192E0	1.5054E-4	-3.9172E-2
1.9947E-2	-3.3612E0	1.5157E-4	-3.8979E-2
1.0736E-1	-3.2724E0	1.5249E-4	-3.8788E-2
1.7883E-1	-3.1558E0	1.5099E-4	-3.8596E-2
2.3161E-1	-3.0144E0	1.4968E-4	-3.8403E-2
2.6347E-1	-2.8519E0	1.4968E-4	-3.8209E-2
2.7285E-1	-2.6722E0	1.5092E-4	-3.8017E-2
2.588E-1	-2.4795E0	1.5131E-4	-3.7824E-2
2.2103E-1	-2.2779E0	1.5216E-4	-3.7632E-2
1.5991E-1	-2.0714E0	1.5282E-4	-3.744E-2
7.642E-2	-1.8641E0	1.5291E-4	-3.7249E-2
-2.7891E-2	-1.6597E0	1.5266E-4	-3.7056E-2
-1.5093E-1	-1.4617E0	1.5311E-4	-3.6864E-2
-2.9016E-1	-1.273E0	1.5292E-4	-3.6672E-2
-4.4266E-1	-1.0963E0	1.5324E-4	-3.648E-2
-6.0519E-1	-9.3361E-1	1.5308E-4	-3.6289E-2
-7.7436E-1	-7.864E-1	1.5241E-4	-3.6096E-2
-9.4663E-1	-6.5563E-1	1.5244E-4	-3.5904E-2
-1.1185E0	-5.4167E-1	1.5277E-4	-3.5712E-2
-1.2865E0	-4.4435E-1	1.5288E-4	-3.552E-2
-1.4473E0	-3.6293E-1	1.5199E-4	-3.5329E-2
-1.5981E0	-2.9622E-1	1.5107E-4	-3.5136E-2
-1.736E0	-2.426E-1	1.5088E-4	-3.4943E-2
-1.859E0	-2.0006E-1	1.5112E-4	-3.475E-2
-1.9651E0	-1.6632E-1	1.5126E-4	-3.4558E-2
-2.0531E0	-1.3888E-1	1.5211E-4	-3.4366E-2
-2.1221E0	-1.1516E-1	1.5225E-4	-3.4174E-2
-2.1721E0	-9.2492E-2	1.5174E-4	-3.3983E-2
-2.203E0	-6.8317E-2	1.5056E-4	-3.3791E-2
-2.2159E0	-4.0199E-2	1.4953E-4	-3.3598E-2
-2.2118E0	-5.9319E-3	1.4866E-4	-3.3405E-2
-2.1924E0	3.6393E-2	1.4896E-4	-3.321E-2
-2.1596E0	8.8323E-2	1.5082E-4	-3.3017E-2
-2.1157E0	1.51E-1	1.5211E-4	-3.2826E-2
-2.0632E0	2.251E-1	1.5272E-4	-3.2634E-2
-2.0046E0	3.1085E-1	1.5285E-4	-3.2443E-2
-1.9425E0	4.0798E-1	1.5237E-4	-3.2252E-2
-1.8795E0	5.1575E-1	1.5144E-4	-3.206E-2
-1.818E0	6.3294E-1	1.5013E-4	-3.1867E-2
-1.7602E0	7.5795E-1	1.5021E-4	-3.1673E-2
-1.7079E0	8.8877E-1	1.5115E-4	-3.1481E-2
-1.6627E0	1.0231E0	1.5162E-4	-3.1289E-2
-1.6259E0	1.1583E0	1.5143E-4	-3.1097E-2
-1.598E0	1.2918E0	1.5152E-4	-3.0905E-2
-1.5792E0	1.4206E0	1.513E-4	-3.0713E-2
-1.5695E0	1.542E0	1.4978E-4	-3.052E-2
-1.5679E0	1.6532E0	1.5056E-4	-3.0326E-2
-1.5734E0	1.7518E0	1.5203E-4	-3.0134E-2
-1.5842E0	1.8352E0	1.5244E-4	-2.9943E-2
-1.5984E0	1.9017E0	1.526E-4	-2.9751E-2
-1.6137E0	1.9496E0	1.5222E-4	-2.9559E-2
-1.6274E0	1.9779E0	1.5189E-4	-2.9367E-2
-1.6369E0	1.9857E0	1.5144E-4	-2.9175E-2
-1.6392E0	1.9732E0	1.5139E-4	-2.8981E-2
-1.6314E0	1.9407E0	1.5301E-4	-2.8789E-2
-1.6109E0	1.8892E0	1.5422E-4	-2.8598E-2
-1.5751E0	1.8202E0	1.5341E-4	-2.8407E-2
-1.5215E0	1.7358E0	1.526E-4	-2.8215E-2
-1.4483E0	1.6384E0	1.5228E-4	-2.8023E-2
-1.3539E0	1.5308E0	1.518E-4	-2.783E-2
-1.2372E0	1.4163E0	1.5145E-4	-2.7638E-2
-1.0977E0	1.2982E0	1.5102E-4	-2.7445E-2
-9.3549E-1	1.1802E0	1.5126E-4	-2.7252E-2
-7.512E-1	1.0658E0	1.5241E-4	-2.7059E-2
-5.4607E-1	9.5864E-1	1.5351E-4	-2.6868E-2
-3.2198E-1	8.6217E-1	1.5283E-4	-2.6677E-2
-8.133E-2	7.7958E-1	1.5242E-4	-2.6484E-2
1.7292E-1	7.1373E-1	1.5312E-4	-2.6292E-2
4.3735E-1	6.6708E-1	1.5334E-4	-2.61E-2
7.0815E-1	6.4157E-1	1.535E-4	-2.5908E-2
9.8116E-1	6.3859E-1	1.5356E-4	-2.5717E-2
1.252E0	6.5892E-1	1.5247E-4	-2.5525E-2
1.5163E0	7.027E-1	1.521E-4	-2.5332E-2
1.7694E0	7.6938E-1	1.5193E-4	-2.514E-2
2.0069E0	8.5776E-1	1.5227E-4	-2.4947E-2
2.2247E0	9.6597E-1	1.5306E-4	-2.4755E-2
2.4188E0	1.0915E0	1.5305E-4	-2.4564E-2
2.5858E0	1.2314E0	1.5203E-4	-2.4372E-2
2.7225E0	1.3819E0	1.5094E-4	-2.4179E-2
2.8266E0	1.5392E0	1.5051E-4	-2.3986E-2
2.8962E0	1.6988E0	1.5158E-4	-2.3793E-2
2.9304E0	1.8562E0	1.53E-4	-2.3601E-2
2.9287E0	2.0067E0	1.5303E-4	-2.341E-2
2.8916E0	2.1454E0	1.5246E-4	-2.3218E-2
2.8202E0	2.2679E0	1.5247E-4	-2.3026E-2
2.7164E0	2.3695E0	1.5235E-4	-2.2834E-2
2.5828E0	2.4463E0	1.5141E-4	-2.2642E-2
2.4227E0	2.4946E0	1.5109E-4	-2.2448E-2
2.24E0	2.5112E0	1.5252E-4	-2.2256E-2
2.0389E0	2.4936E0	1.5256E-4	-2.2065E-2
1.8242E0	2.44E0	1.5166E-4	-2.1873E-2
1.6011E0	2.3492E0	1.5166E-4	-2.1681E-2
1.3746E0	2.221E0	1.5123E-4	-2.1489E-2
1.1501E0	2.0559E0	1.5053E-4	-2.1296E-2
9.3277E-1	1.855E0	1.5029E-4	-2.1103E-2
7.2773E-1	1.6207E0	1.511E-4	-2.091E-2
5.3968E-1	1.3555E0	1.5254E-4	-2.0718E-2
3.7294E-1	1.0632E0	1.5271E-4	-2.0527E-2
2.3132E-1	7.4781E-1	1.519E-4	-2.0336E-2
1.1801E-1	4.1407E-1	1.5155E-4	-2.0144E-2
3.5537E-2	6.7122E-2	1.504E-4	-1.9952E-2
-1.4353E-2	-2.8756E-1	1.4965E-4	-1.9759E-2
-3.0682E-2	-6.443E-1	1.4967E-4	-1.9566E-2
-1.3293E-2	-9.9732E-1	1.4959E-4	-1.9373E-2
3.7149E-2	-1.3409E0	1.5015E-4	-1.918E-2
1.1917E-1	-1.6694E0	1.5094E-4	-1.8987E-2
2.3053E-1	-1.9777E0	1.5157E-4	-1.8796E-2
3.6825E-1	-2.2607E0	1.5187E-4	-1.8604E-2
5.2872E-1	-2.5142E0	1.5206E-4	-1.8412E-2
7.0773E-1	-2.7344E0	1.5232E-4	-1.822E-2
9.0062E-1	-2.9182E0	1.5147E-4	-1.8028E-2
1.1024E0	-3.0632E0	1.5157E-4	-1.7835E-2
1.3077E0	-3.1681E0	1.523E-4	-1.7643E-2
1.5111E0	-3.2319E0	1.5234E-4	-1.7452E-2
1.7074E0	-3.255E0	1.5186E-4	-1.726E-2
1.8911E0	-3.2383E0	1.5065E-4	-1.7068E-2
2.0572E0	-3.1834E0	1.5047E-4	-1.6875E-2
2.2012E0	-3.093E0	1.5134E-4	-1.6682E-2
2.3188E0	-2.9703E0	1.513E-4	-1.649E-2
2.4063E0	-2.8189E0	1.514E-4	-1.6298E-2
2.4608E0	-2.6434E0	1.5129E-4	-1.6106E-2
2.4801E0	-2.4483E0	1.5084E-4	-1.5914E-2
2.4626E0	-2.2388E0	1.5034E-4	-1.5721E-2
2.4075E0	-2.0199E0	1.5191E-4	-1.5527E-2
2.3151E0	-1.797E0	1.5308E-4	-1.5336E-2
2.1862E0	-1.5752E0	1.5294E-4	-1.5144E-2
2.0225E0	-1.3595E0	1.5338E-4	-1.4952E-2
1.8262E0	-1.1546E0	1.5344E-4	-1.4761E-2
1.6006E0	-9.6485E-1	1.5343E-4	-1.4569E-2
1.3491E0	-7.9395E-1	1.535E-4	-1.4378E-2
1.0761E0	-6.4513E-1	1.522E-4	-1.4186E-2
7.8589E-1	-5.2097E-1	1.515E-4	-1.3993E-2
4.8344E-1	-4.2333E-1	1.5228E-4	-1.38E-2
1.7374E-1	-3.5338E-1	1.5276E-4	-1.3608E-2
-1.3813E-1	-3.1152E-1	1.5307E-4	-1.3416E-2
-4.4716E-1	-2.9745E-1	1.537E-4	-1.3224E-2
-7.4848E-1	-3.1014E-1	1.5447E-4	-1.3033E-2
-1.0375E0	-3.4792E-1	1.5373E-4	-1.2842E-2
-1.31E0	-4.0848E-1	1.533E-4	-1.265E-2
-1.5622E0	-4.8899E-1	1.5253E-4	-1.2459E-2
-1.791E0	-5.8615E-1	1.5078E-4	-1.2267E-2
-1.9936E0	-6.963E-1	1.4982E-4	-1.2074E-2
-2.1681E0	-8.1551E-1	1.4837E-4	-1.1881E-2
-2.3131E0	-9.397E-1	1.4791E-4	-1.1686E-2
-2.428E0	-1.0647E0	1.5084E-4	-1.1492E-2
-2.5129E0	-1.1864E0	1.5341E-4	-1.1301E-2
-2.5683E0	-1.301E0	1.5369E-4	-1.1111E-2
-2.5957E0	-1.4046E0	1.5299E-4	-1.092E-2
-2.5968E0	-1.494E0	1.5154E-4	-1.0729E-2
-2.574E0	-1.5662E0	1.4981E-4	-1.0536E-2
-2.53E0	-1.6188E0	1.4881E-4	-1.0342E-2
-2.468E0	-1.6498E0	1.5009E-4	-1.0149E-2
-2.3912E0	-1.658E0	1.51E-4	-9.9564E-3
-2.3031E0	-1.6425E0	1.5165E-4	-9.7645E-3
-2.2073E0	-1.6032E0	1.5206E-4	-9.5725E-3
-2.1071E0	-1.5407E0	1.5276E-4	-9.3807E-3
-2.0059E0	-1.4558E0	1.5334E-4	-9.1896E-3
-1.9068E0	-1.3501E0	1.5302E-4	-8.9988E-3
-1.8125E0	-1.2256E0	1.5176E-4	-8.8074E-3
-1.7255E0	-1.0847E0	1.5092E-4	-8.6153E-3
-1.6476E0	-9.3013E-1	1.4995E-4	-8.4232E-3
-1.5804E0	-7.6486E-1	1.4895E-4	-8.2306E-3
-1.5248E0	-5.9202E-1	1.4833E-4	-8.0378E-3
-1.4814E0	-4.1481E-1	1.4772E-4	-7.8445E-3
-1.45E0	-2.3639E-1	1.4802E-4	-7.6513E-3
-1.4301E0	-5.9854E-2	1.4858E-4	-7.458E-3
-1.4208E0	1.1194E-1	1.5044E-4	-7.2655E-3
-1.4206E0	2.7638E-1	1.5162E-4	-7.0747E-3
-1.4278E0	4.3119E-1	1.5151E-4	-6.8844E-3
-1.4402E0	5.7449E-1	1.4977E-4	-6.6936E-3
-1.4557E0	7.0482E-1	1.4764E-4	-6.501E-3
-1.4716E0	8.212E-1	1.4654E-4	-6.3075E-3
-1.4857E0	9.2311E-1	1.4596E-4	-6.1143E-3
-1.4953E0	1.0105E0	1.4531E-4	-5.9202E-3
-1.4981E0	1.0839E0	1.4622E-4	-5.7262E-3
-1.4921E0	1.1441E0	1.4741E-4	-5.5328E-3
-1.4752E0	1.1924E0	1.4932E-4	-5.34E-3
-1.4458E0	1.2304E0	1.5064E-4	-5.148E-3
-1.4029E0	1.2601E0	1.5221E-4	-4.9559E-3
-1.3455E0	1.2836E0	1.5381E-4	-4.7648E-3
-1.2735E0	1.303E0	1.5478E-4	-4.5744E-3
-1.1868E0	1.3209E0	1.5461E-4	-4.3844E-3
-1.0862E0	1.3394E0	1.5282E-4	-4.1935E-3
-9.7267E-1	1.3608E0	1.5118E-4	-4.0007E-3
-8.4775E-1	1.387E0	1.5144E-4	-3.8071E-3
-7.1333E-1	1.4199E0	1.5263E-4	-3.6151E-3
-5.7165E-1	1.4608E0	1.5282E-4	-3.4237E-3
-4.2522E-1	1.5108E0	1.5303E-4	-3.2319E-3
-2.7678E-1	1.5705E0	1.5337E-4	-3.0406E-3
-1.2916E-1	1.6401E0	1.5323E-4	-2.8497E-3
1.4728E-2	1.7193E0	1.5196E-4	-2.6588E-3
1.5203E-1	1.8073E0	1.5056E-4	-2.4664E-3
2.8001E-1	1.9028E0	1.4994E-4	-2.2739E-3
3.9615E-1	2.0041E0	1.4947E-4	-2.0821E-3
4.9821E-1	2.1092E0	1.479E-4	-1.8899E-3
5.8433E-1	2.2154E0	1.4689E-4	-1.6963E-3
6.5304E-1	2.3202E0	1.4709E-4	-1.503E-3
7.0337E-1	2.4204E0	1.4731E-4	-1.3102E-3
7.3485E-1	2.513E0	1.4792E-4	-1.1176E-3
7.4754E-1	2.5948E0	1.4797E-4	-9.2565E-4
7.4208E-1	2.6626E0	1.4799E-4	-7.334E-4
7.196E-1	2.7136E0	1.4742E-4	-5.4133E-4
6.8179E-1	2.7448E0	1.4711E-4	-3.4834E-4
6.3083E-1	2.7538E0	1.4727E-4	-1.5567E-4
