jMRUI Data Textfile

Filename: lip_c_correct_4.7shift.txt

PointsInDataset: 32768     
DatasetsInFile: 1         
SamplingInterval: 3.3333E-2 
ZeroOrderPhase: 0E0       
BeginTime: 0E0       
TransmitterFrequency: 2.9722E8  
MagneticField: 0E0       
TypeOfNucleus: 0E0       
NameOfPatient: 
DateOfExperiment: 
Spectrometer: 
AdditionalInfo: 


Signal and FFT
sig(real)	sig(imag)	fft(real)	fft(imag)
Signal 1 out of 1 in file
4.1E-1	0E0	-1.4571E-7	1.5282E-2
4.054E-1	-6.0776E-2	-1.6598E-7	1.5302E-2
3.9171E-1	-1.2015E-1	-1.812E-7	1.5322E-2
3.6925E-1	-1.7675E-1	-1.8924E-7	1.5341E-2
3.3855E-1	-2.2928E-1	-1.8921E-7	1.5361E-2
3.0034E-1	-2.7654E-1	-1.8185E-7	1.5381E-2
2.5552E-1	-3.1743E-1	-1.6922E-7	1.5401E-2
2.0513E-1	-3.5106E-1	-1.5353E-7	1.5421E-2
1.5037E-1	-3.7665E-1	-1.3599E-7	1.544E-2
9.2514E-2	-3.9366E-1	-1.1642E-7	1.546E-2
3.2914E-2	-4.0173E-1	-9.3844E-8	1.548E-2
-2.7043E-2	-4.0072E-1	-6.7526E-8	1.55E-2
-8.597E-2	-3.9071E-1	-3.7502E-8	1.552E-2
-1.4251E-1	-3.7198E-1	-4.3403E-9	1.5539E-2
-1.9537E-1	-3.4503E-1	3.1396E-8	1.5559E-2
-2.4335E-1	-3.1055E-1	6.914E-8	1.5579E-2
-2.8537E-1	-2.6939E-1	1.0749E-7	1.5599E-2
-3.2052E-1	-2.2257E-1	1.4315E-7	1.5618E-2
-3.4803E-1	-1.7123E-1	1.7073E-7	1.5638E-2
-3.6735E-1	-1.166E-1	1.842E-7	1.5658E-2
-3.7809E-1	-5.9991E-2	1.7956E-7	1.5677E-2
-3.801E-1	-2.7477E-3	1.5745E-7	1.5697E-2
-3.7344E-1	5.3785E-2	1.2394E-7	1.5717E-2
-3.5835E-1	1.0829E-1	8.857E-8	1.5737E-2
-3.353E-1	1.5952E-1	6.0463E-8	1.5756E-2
-3.0493E-1	2.063E-1	4.4177E-8	1.5776E-2
-2.6804E-1	2.4759E-1	3.7585E-8	1.5796E-2
-2.2561E-1	2.825E-1	3.2843E-8	1.5816E-2
-1.7871E-1	3.1028E-1	2.0042E-8	1.5836E-2
-1.2853E-1	3.3039E-1	-8.1344E-9	1.5855E-2
-7.6301E-2	3.4246E-1	-5.2835E-8	1.5875E-2
-2.3306E-2	3.4633E-1	-1.0805E-7	1.5895E-2
2.9176E-2	3.4204E-1	-1.6253E-7	1.5915E-2
7.9894E-2	3.2983E-1	-2.0377E-7	1.5934E-2
1.2766E-1	3.1013E-1	-2.2222E-7	1.5954E-2
1.7137E-1	2.8354E-1	-2.1418E-7	1.5974E-2
2.1004E-1	2.5084E-1	-1.8245E-7	1.5994E-2
2.4283E-1	2.1293E-1	-1.3494E-7	1.6014E-2
2.6904E-1	1.7084E-1	-8.2321E-8	1.6033E-2
2.8816E-1	1.2567E-1	-3.5364E-8	1.6053E-2
2.9987E-1	7.8589E-2	-2.8099E-9	1.6073E-2
3.0401E-1	3.0807E-2	1.0117E-8	1.6093E-2
3.0065E-1	-1.6484E-2	2.3931E-9	1.6112E-2
2.9002E-1	-6.2117E-2	-2.2942E-8	1.6132E-2
2.7254E-1	-1.0499E-1	-5.9682E-8	1.6152E-2
2.488E-1	-1.4408E-1	-9.991E-8	1.6172E-2
2.1952E-1	-1.7848E-1	-1.3575E-7	1.6192E-2
1.8558E-1	-2.0744E-1	-1.6117E-7	1.6211E-2
1.4794E-1	-2.3032E-1	-1.7345E-7	1.6231E-2
1.0764E-1	-2.4668E-1	-1.7401E-7	1.6251E-2
6.5785E-2	-2.5625E-1	-1.6807E-7	1.6271E-2
2.3489E-2	-2.5892E-1	-1.6297E-7	1.629E-2
-1.8138E-2	-2.5479E-1	-1.6552E-7	1.631E-2
-5.8022E-2	-2.4413E-1	-1.792E-7	1.633E-2
-9.5154E-2	-2.2734E-1	-2.0275E-7	1.635E-2
-1.2861E-1	-2.0503E-1	-2.3064E-7	1.637E-2
-1.5759E-1	-1.7791E-1	-2.5548E-7	1.6389E-2
-1.8142E-1	-1.468E-1	-2.708E-7	1.6409E-2
-1.9956E-1	-1.1264E-1	-2.7297E-7	1.6429E-2
-2.1166E-1	-7.6425E-2	-2.6172E-7	1.6449E-2
-2.1751E-1	-3.9174E-2	-2.3945E-7	1.6469E-2
-2.1708E-1	-1.9338E-3	-2.1031E-7	1.6488E-2
-2.1053E-1	3.4269E-2	-1.7921E-7	1.6508E-2
-1.9815E-1	6.8453E-2	-1.5098E-7	1.6528E-2
-1.804E-1	9.9705E-2	-1.2972E-7	1.6548E-2
-1.5789E-1	1.2721E-1	-1.1827E-7	1.6568E-2
-1.3134E-1	1.5025E-1	-1.1813E-7	1.6587E-2
-1.0157E-1	1.6827E-1	-1.2943E-7	1.6607E-2
-6.9482E-2	1.8083E-1	-1.5078E-7	1.6627E-2
-3.6035E-2	1.8766E-1	-1.7891E-7	1.6647E-2
-2.2074E-3	1.8866E-1	-2.0869E-7	1.6666E-2
3.1019E-2	1.8387E-1	-2.3399E-7	1.6686E-2
6.269E-2	1.7352E-1	-2.4916E-7	1.6706E-2
9.1905E-2	1.5797E-1	-2.5068E-7	1.6726E-2
1.1784E-1	1.3774E-1	-2.3778E-7	1.6746E-2
1.3977E-1	1.1345E-1	-2.1217E-7	1.6766E-2
1.5709E-1	8.5863E-2	-1.7704E-7	1.6785E-2
1.6932E-1	5.5806E-2	-1.3636E-7	1.6805E-2
1.7614E-1	2.4179E-2	-9.4377E-8	1.6825E-2
1.7737E-1	-8.0792E-3	-5.5371E-8	1.6845E-2
1.73E-1	-4.0019E-2	-2.2987E-8	1.6865E-2
1.6317E-1	-7.07E-2	5.9731E-10	1.6884E-2
1.4819E-1	-9.9224E-2	1.5334E-8	1.6904E-2
1.2848E-1	-1.2475E-1	2.329E-8	1.6924E-2
1.0462E-1	-1.4653E-1	2.7836E-8	1.6944E-2
7.7298E-2	-1.6392E-1	3.2328E-8	1.6963E-2
4.7307E-2	-1.7639E-1	3.8695E-8	1.6983E-2
1.5503E-2	-1.8356E-1	4.6406E-8	1.7003E-2
-1.7201E-2	-1.852E-1	5.2293E-8	1.7023E-2
-4.9863E-2	-1.8121E-1	5.157E-8	1.7042E-2
-8.1544E-2	-1.7167E-1	3.9985E-8	1.7062E-2
-1.1133E-1	-1.5681E-1	1.6245E-8	1.7082E-2
-1.3834E-1	-1.3701E-1	-1.6553E-8	1.7102E-2
-1.618E-1	-1.1278E-1	-5.1463E-8	1.7122E-2
-1.8099E-1	-8.4753E-2	-8.0065E-8	1.7141E-2
-1.9534E-1	-5.3681E-2	-9.548E-8	1.7161E-2
-2.0438E-1	-2.0394E-2	-9.45E-8	1.7181E-2
-2.078E-1	1.4208E-2	-7.7998E-8	1.7201E-2
-2.0543E-1	4.9185E-2	-4.9868E-8	1.7221E-2
-1.9726E-1	8.3583E-2	-1.5431E-8	1.724E-2
-1.8344E-1	1.1645E-1	1.9768E-8	1.726E-2
-1.6427E-1	1.4688E-1	5.0497E-8	1.728E-2
-1.402E-1	1.7402E-1	7.2019E-8	1.73E-2
-1.1179E-1	1.9708E-1	8.0398E-8	1.732E-2
-7.9743E-2	2.1541E-1	7.3156E-8	1.7339E-2
-4.4866E-2	2.2845E-1	5.0037E-8	1.7359E-2
-8.0315E-3	2.3578E-1	1.349E-8	1.7379E-2
2.9822E-2	2.3713E-1	-3.1463E-8	1.7399E-2
6.7724E-2	2.3239E-1	-7.8066E-8	1.7418E-2
1.047E-1	2.216E-1	-1.1923E-7	1.7438E-2
1.3977E-1	2.0495E-1	-1.4918E-7	1.7458E-2
1.7204E-1	1.8279E-1	-1.6482E-7	1.7478E-2
2.0063E-1	1.5562E-1	-1.6656E-7	1.7498E-2
2.2479E-1	1.2405E-1	-1.5799E-7	1.7518E-2
2.4384E-1	8.8834E-2	-1.4479E-7	1.7537E-2
2.5726E-1	5.0802E-2	-1.3298E-7	1.7557E-2
2.6464E-1	1.087E-2	-1.2718E-7	1.7577E-2
2.6574E-1	-2.9996E-2	-1.2946E-7	1.7597E-2
2.6046E-1	-7.08E-2	-1.3914E-7	1.7617E-2
2.4887E-1	-1.1054E-1	-1.5344E-7	1.7636E-2
2.3119E-1	-1.4824E-1	-1.6868E-7	1.7656E-2
2.0779E-1	-1.8297E-1	-1.8147E-7	1.7676E-2
1.7918E-1	-2.1385E-1	-1.8949E-7	1.7696E-2
1.4602E-1	-2.4013E-1	-1.9159E-7	1.7716E-2
1.0905E-1	-2.6112E-1	-1.8754E-7	1.7735E-2
6.9145E-2	-2.763E-1	-1.7774E-7	1.7755E-2
2.7222E-2	-2.8526E-1	-1.6326E-7	1.7775E-2
-1.5739E-2	-2.8776E-1	-1.4611E-7	1.7795E-2
-5.873E-2	-2.837E-1	-1.29E-7	1.7815E-2
-1.0074E-1	-2.7315E-1	-1.1418E-7	1.7835E-2
-1.4079E-1	-2.5632E-1	-1.0172E-7	1.7854E-2
-1.7793E-1	-2.3359E-1	-8.834E-8	1.7874E-2
-2.1129E-1	-2.0546E-1	-6.8254E-8	1.7894E-2
-2.401E-1	-1.7257E-1	-3.6089E-8	1.7914E-2
-2.6367E-1	-1.3568E-1	9.5316E-9	1.7934E-2
-2.8146E-1	-9.5627E-2	6.3941E-8	1.7953E-2
-2.9306E-1	-5.3328E-2	1.1736E-7	1.7973E-2
-2.9821E-1	-9.752E-3	1.5836E-7	1.7993E-2
-2.9679E-1	3.4106E-2	1.7806E-7	1.8013E-2
-2.8885E-1	7.7249E-2	1.7278E-7	1.8032E-2
-2.7457E-1	1.187E-1	1.4437E-7	1.8052E-2
-2.5431E-1	1.5752E-1	9.8789E-8	1.8072E-2
-2.2854E-1	1.9286E-1	4.4056E-8	1.8092E-2
-1.9786E-1	2.2391E-1	-1.1336E-8	1.8111E-2
-1.6299E-1	2.5002E-1	-5.9803E-8	1.8131E-2
-1.2473E-1	2.7063E-1	-9.6167E-8	1.8151E-2
-8.3954E-2	2.853E-1	-1.1917E-7	1.8171E-2
-4.1599E-2	2.9375E-1	-1.3203E-7	1.8191E-2
1.3838E-3	2.9584E-1	-1.4116E-7	1.8211E-2
4.4033E-2	2.9158E-1	-1.5318E-7	1.823E-2
8.5406E-2	2.8113E-1	-1.7176E-7	1.825E-2
1.246E-1	2.6478E-1	-1.9611E-7	1.827E-2
1.6077E-1	2.4294E-1	-2.2183E-7	1.829E-2
1.9315E-1	2.1617E-1	-2.4313E-7	1.831E-2
2.2108E-1	1.8512E-1	-2.5498E-7	1.833E-2
2.44E-1	1.5053E-1	-2.5388E-7	1.8349E-2
2.6147E-1	1.132E-1	-2.3752E-7	1.8369E-2
2.732E-1	7.4E-2	-2.0457E-7	1.8389E-2
2.7901E-1	3.3811E-2	-1.5518E-7	1.8409E-2
2.7887E-1	-6.4692E-3	-9.2328E-8	1.8429E-2
2.7289E-1	-4.5958E-2	-2.2651E-8	1.8449E-2
2.6131E-1	-8.3808E-2	4.4191E-8	1.8469E-2
2.4447E-1	-1.1922E-1	9.7772E-8	1.8488E-2
2.2286E-1	-1.5148E-1	1.2992E-7	1.8508E-2
1.9703E-1	-1.7994E-1	1.3705E-7	1.8528E-2
1.6765E-1	-2.0407E-1	1.208E-7	1.8548E-2
1.3543E-1	-2.2344E-1	8.688E-8	1.8567E-2
1.0113E-1	-2.3774E-1	4.2816E-8	1.8587E-2
6.5555E-2	-2.4678E-1	-4.2316E-9	1.8607E-2
2.9501E-2	-2.505E-1	-4.894E-8	1.8627E-2
-6.2341E-3	-2.4895E-1	-8.8243E-8	1.8647E-2
-4.0886E-2	-2.4232E-1	-1.21E-7	1.8666E-2
-7.3734E-2	-2.3088E-1	-1.4742E-7	1.8686E-2
-1.0412E-1	-2.1503E-1	-1.6858E-7	1.8706E-2
-1.3146E-1	-1.9525E-1	-1.863E-7	1.8726E-2
-1.5526E-1	-1.7207E-1	-2.0282E-7	1.8746E-2
-1.7511E-1	-1.4612E-1	-2.2023E-7	1.8766E-2
-1.9073E-1	-1.1805E-1	-2.3937E-7	1.8785E-2
-2.0191E-1	-8.8544E-2	-2.5893E-7	1.8805E-2
-2.0857E-1	-5.8286E-2	-2.7528E-7	1.8825E-2
-2.1075E-1	-2.7962E-2	-2.8359E-7	1.8845E-2
-2.0856E-1	1.7689E-3	-2.7999E-7	1.8865E-2
-2.0222E-1	3.0285E-2	-2.6381E-7	1.8885E-2
-1.9204E-1	5.7017E-2	-2.3867E-7	1.8905E-2
-1.784E-1	8.1462E-2	-2.1157E-7	1.8924E-2
-1.6176E-1	1.0319E-1	-1.8985E-7	1.8944E-2
-1.426E-1	1.2184E-1	-1.7736E-7	1.8964E-2
-1.2147E-1	1.3716E-1	-1.7187E-7	1.8984E-2
-9.8915E-2	1.4898E-1	-1.6516E-7	1.9004E-2
-7.5505E-2	1.5721E-1	-1.4643E-7	1.9024E-2
-5.1794E-2	1.6185E-1	-1.0713E-7	1.9043E-2
-2.832E-2	1.63E-1	-4.5121E-8	1.9063E-2
-5.584E-3	1.6082E-1	3.4242E-8	1.9083E-2
1.5954E-2	1.5555E-1	1.2015E-7	1.9103E-2
3.5888E-2	1.4748E-1	2.0032E-7	1.9123E-2
5.3876E-2	1.3698E-1	2.6469E-7	1.9143E-2
6.9639E-2	1.2443E-1	3.0741E-7	1.9162E-2
8.2971E-2	1.1024E-1	3.2687E-7	1.9182E-2
9.374E-2	9.4836E-2	3.2434E-7	1.9202E-2
1.0188E-1	7.8662E-2	3.0235E-7	1.9221E-2
1.0741E-1	6.2138E-2	2.6363E-7	1.9241E-2
1.1039E-1	4.5668E-2	2.1088E-7	1.9261E-2
1.1096E-1	2.9626E-2	1.4752E-7	1.9281E-2
1.0931E-1	1.4348E-2	7.8513E-8	1.9301E-2
1.0566E-1	1.2695E-4	1.0592E-8	1.932E-2
1.0029E-1	-1.2798E-2	-4.8705E-8	1.934E-2
9.3483E-2	-2.4238E-2	-9.294E-8	1.936E-2
8.5546E-2	-3.4065E-2	-1.1872E-7	1.938E-2
7.6793E-2	-4.2203E-2	-1.2665E-7	1.94E-2
6.7531E-2	-4.8634E-2	-1.2089E-7	1.942E-2
5.8056E-2	-5.3388E-2	-1.0767E-7	1.944E-2
4.8641E-2	-5.6546E-2	-9.3608E-8	1.9459E-2
3.9532E-2	-5.8228E-2	-8.4533E-8	1.9479E-2
3.094E-2	-5.8591E-2	-8.4793E-8	1.9499E-2
2.3035E-2	-5.7816E-2	-9.6841E-8	1.9519E-2
1.5949E-2	-5.6107E-2	-1.2071E-7	1.9539E-2
9.7684E-3	-5.3676E-2	-1.5345E-7	1.9559E-2
4.5362E-3	-5.0739E-2	-1.8887E-7	1.9578E-2
2.5375E-4	-4.7508E-2	-2.1827E-7	1.9598E-2
-3.1169E-3	-4.418E-2	-2.3234E-7	1.9618E-2
-5.6488E-3	-4.0935E-2	-2.2393E-7	1.9638E-2
-7.4454E-3	-3.7926E-2	-1.9089E-7	1.9658E-2
-8.6344E-3	-3.5279E-2	-1.3751E-7	1.9678E-2
-9.3613E-3	-3.3087E-2	-7.3821E-8	1.9698E-2
-9.7822E-3	-3.1405E-2	-1.2708E-8	1.9718E-2
-1.0057E-2	-3.0256E-2	3.4115E-8	1.9737E-2
-1.0344E-2	-2.9626E-2	5.9834E-8	1.9757E-2
-1.0788E-2	-2.9469E-2	6.442E-8	1.9777E-2
-1.1521E-2	-2.9707E-2	5.3902E-8	1.9797E-2
-1.2652E-2	-3.0238E-2	3.7296E-8	1.9817E-2
-1.4265E-2	-3.0937E-2	2.2519E-8	1.9836E-2
