jMRUI Data Textfile

Filename: mm3.txt

PointsInDataset: 32768     
DatasetsInFile: 1         
SamplingInterval: 3.333E-2  
ZeroOrderPhase: 0E0       
BeginTime: 0E0       
TransmitterFrequency: 2.9722E8  
MagneticField: 0E0       
TypeOfNucleus: 1E0       
NameOfPatient: 
DateOfExperiment: 
Spectrometer: 
AdditionalInfo: 


Signal and FFT
sig(real)	sig(imag)	fft(real)	fft(imag)
Signal 1 out of 1 in file
7.6E-1	0E0	1.9159E-9	3.0221E-2
7.5045E-1	-1.2012E-1	1.8704E-8	3.0257E-2
7.2203E-1	-2.3722E-1	3.9753E-8	3.0294E-2
6.7545E-1	-3.4836E-1	6.3627E-8	3.0331E-2
6.119E-1	-4.5074E-1	8.8979E-8	3.0367E-2
5.3296E-1	-5.4178E-1	1.1468E-7	3.0404E-2
4.4063E-1	-6.192E-1	1.3991E-7	3.0441E-2
3.3722E-1	-6.8106E-1	1.6419E-7	3.0477E-2
2.2533E-1	-7.2578E-1	1.8735E-7	3.0514E-2
1.0778E-1	-7.5227E-1	2.0946E-7	3.0551E-2
-1.247E-2	-7.5983E-1	2.3074E-7	3.0587E-2
-1.3241E-1	-7.483E-1	2.5145E-7	3.0624E-2
-2.4901E-1	-7.1795E-1	2.7174E-7	3.0661E-2
-3.5935E-1	-6.6956E-1	2.9162E-7	3.0697E-2
-4.6065E-1	-6.0433E-1	3.1082E-7	3.0734E-2
-5.5036E-1	-5.2391E-1	3.2883E-7	3.077E-2
-6.2623E-1	-4.3033E-1	3.449E-7	3.0807E-2
-6.8636E-1	-3.2593E-1	3.5811E-7	3.0844E-2
-7.2923E-1	-2.1335E-1	3.6746E-7	3.088E-2
-7.5376E-1	-9.5403E-2	3.7202E-7	3.0917E-2
-7.5934E-1	2.493E-2	3.7105E-7	3.0954E-2
-7.4582E-1	1.4463E-1	3.641E-7	3.099E-2
-7.1356E-1	2.6068E-1	3.5114E-7	3.1027E-2
-6.6337E-1	3.7017E-1	3.3255E-7	3.1064E-2
-5.965E-1	4.7035E-1	3.0915E-7	3.11E-2
-5.1464E-1	5.587E-1	2.8211E-7	3.1137E-2
-4.1985E-1	6.3299E-1	2.5284E-7	3.1173E-2
-3.1451E-1	6.9136E-1	2.228E-7	3.121E-2
-2.0127E-1	7.3234E-1	1.934E-7	3.1247E-2
-8.2988E-2	7.5492E-1	1.6575E-7	3.1283E-2
3.7371E-2	7.5851E-1	1.4059E-7	3.132E-2
1.5678E-1	7.4303E-1	1.1817E-7	3.1357E-2
2.7223E-1	7.0887E-1	9.8237E-8	3.1393E-2
3.8083E-1	6.569E-1	8.0063E-8	3.143E-2
4.7984E-1	5.8841E-1	6.2545E-8	3.1467E-2
5.6678E-1	5.0515E-1	4.4339E-8	3.1503E-2
6.3946E-1	4.0919E-1	2.4028E-8	3.154E-2
6.9605E-1	3.0296E-1	2.873E-10	3.1577E-2
7.3514E-1	1.8912E-1	-2.7959E-8	3.1613E-2
7.5574E-1	7.0549E-2	-6.1422E-8	3.165E-2
7.5734E-1	-4.9784E-2	-1.0038E-7	3.1687E-2
7.3991E-1	-1.6885E-1	-1.4465E-7	3.1723E-2
7.0387E-1	-2.8365E-1	-1.9364E-7	3.176E-2
6.5014E-1	-3.9131E-1	-2.4646E-7	3.1797E-2
5.8008E-1	-4.8911E-1	-3.0197E-7	3.1833E-2
4.9544E-1	-5.7461E-1	-3.5902E-7	3.187E-2
3.9837E-1	-6.4564E-1	-4.1648E-7	3.1907E-2
2.9129E-1	-7.0044E-1	-4.7341E-7	3.1944E-2
1.7691E-1	-7.3761E-1	-5.2911E-7	3.198E-2
5.8095E-2	-7.5624E-1	-5.8313E-7	3.2017E-2
-6.2157E-2	-7.5585E-1	-6.3526E-7	3.2054E-2
-1.8083E-1	-7.3647E-1	-6.8546E-7	3.209E-2
-2.9493E-1	-6.9857E-1	-7.3377E-7	3.2127E-2
-4.016E-1	-6.4312E-1	-7.8023E-7	3.2164E-2
-4.9816E-1	-5.7151E-1	-8.2482E-7	3.2201E-2
-5.8217E-1	-4.8554E-1	-8.6735E-7	3.2237E-2
-6.5153E-1	-3.8739E-1	-9.0752E-7	3.2274E-2
-7.0451E-1	-2.7951E-1	-9.4489E-7	3.2311E-2
-7.3976E-1	-1.6463E-1	-9.7894E-7	3.2348E-2
-7.5641E-1	-4.5637E-2	-1.0091E-6	3.2384E-2
-7.5404E-1	7.4483E-2	-1.0348E-6	3.2421E-2
-7.3271E-1	1.9271E-1	-1.0554E-6	3.2458E-2
-6.9297E-1	3.0606E-1	-1.0705E-6	3.2495E-2
-6.3582E-1	4.117E-1	-1.0795E-6	3.2531E-2
-5.627E-1	5.0696E-1	-1.0819E-6	3.2568E-2
-4.7544E-1	5.8946E-1	-1.0771E-6	3.2605E-2
-3.7626E-1	6.5713E-1	-1.0644E-6	3.2642E-2
-2.6764E-1	7.0826E-1	-1.043E-6	3.2679E-2
-1.5231E-1	7.4157E-1	-1.0121E-6	3.2715E-2
-3.3183E-2	7.5624E-1	-9.7088E-7	3.2752E-2
8.6752E-2	7.5189E-1	-9.1874E-7	3.2789E-2
2.0448E-1	7.2864E-1	-8.5532E-7	3.2826E-2
3.1703E-1	6.8708E-1	-7.8067E-7	3.2863E-2
4.2159E-1	6.2826E-1	-6.9536E-7	3.2899E-2
5.1553E-1	5.5366E-1	-6.0053E-7	3.2936E-2
5.9648E-1	4.6516E-1	-4.9794E-7	3.2973E-2
6.6242E-1	3.6499E-1	-3.8987E-7	3.301E-2
7.1169E-1	2.5567E-1	-2.7901E-7	3.3046E-2
7.4306E-1	1.3995E-1	-1.6827E-7	3.3083E-2
7.5574E-1	2.0743E-2	-6.0533E-8	3.312E-2
7.4942E-1	-9.8953E-2	4.1545E-8	3.3156E-2
7.2426E-1	-2.1613E-1	1.3578E-7	3.3193E-2
6.809E-1	-3.2784E-1	2.2062E-7	3.323E-2
6.2044E-1	-4.3128E-1	2.9524E-7	3.3266E-2
5.444E-1	-5.2385E-1	3.5951E-7	3.3303E-2
4.547E-1	-6.0323E-1	4.1394E-7	3.334E-2
3.5359E-1	-6.6741E-1	4.5946E-7	3.3376E-2
2.4362E-1	-7.1481E-1	4.9719E-7	3.3413E-2
1.2756E-1	-7.4422E-1	5.2823E-7	3.345E-2
8.3274E-3	-7.5491E-1	5.5336E-7	3.3486E-2
-1.1108E-1	-7.4663E-1	5.7293E-7	3.3523E-2
-2.2766E-1	-7.1958E-1	5.8678E-7	3.356E-2
-3.3848E-1	-6.7445E-1	5.9425E-7	3.3596E-2
-4.4075E-1	-6.1238E-1	5.9432E-7	3.3633E-2
-5.3192E-1	-5.3493E-1	5.8588E-7	3.3669E-2
-6.0968E-1	-4.4407E-1	5.6789E-7	3.3706E-2
-6.721E-1	-3.4206E-1	5.3972E-7	3.3743E-2
-7.176E-1	-2.315E-1	5.0131E-7	3.3779E-2
-7.4505E-1	-1.1515E-1	4.5329E-7	3.3816E-2
-7.5376E-1	4.0549E-3	3.9702E-7	3.3853E-2
-7.4352E-1	1.2312E-1	3.3445E-7	3.3889E-2
-7.1459E-1	2.3905E-1	2.6798E-7	3.3926E-2
-6.6771E-1	3.4893E-1	2.002E-7	3.3963E-2
-6.0407E-1	4.5E-1	1.3362E-7	3.4E-2
-5.2526E-1	5.3973E-1	7.045E-8	3.4036E-2
-4.3327E-1	6.1585E-1	1.2451E-8	3.4073E-2
-3.3043E-1	6.7647E-1	-3.9186E-8	3.411E-2
-2.1932E-1	7.2007E-1	-8.3818E-8	3.4147E-2
-1.0273E-1	7.4554E-1	-1.2126E-7	3.4183E-2
1.6394E-2	7.5227E-1	-1.5166E-7	3.422E-2
1.3506E-1	7.4009E-1	-1.7531E-7	3.4257E-2
2.5029E-1	7.0931E-1	-1.9249E-7	3.4294E-2
3.5919E-1	6.6071E-1	-2.0336E-7	3.433E-2
4.5902E-1	5.9552E-1	-2.0787E-7	3.4367E-2
5.4727E-1	5.1538E-1	-2.0574E-7	3.4404E-2
6.2173E-1	4.2233E-1	-1.9653E-7	3.4441E-2
6.8053E-1	3.1869E-1	-1.7972E-7	3.4478E-2
7.2221E-1	2.0708E-1	-1.5483E-7	3.4514E-2
7.4571E-1	9.0312E-2	-1.2155E-7	3.4551E-2
7.5046E-1	-2.8681E-2	-7.9889E-8	3.4588E-2
7.3635E-1	-1.4691E-1	-3.0284E-8	3.4625E-2
7.0373E-1	-2.6139E-1	2.6338E-8	3.4661E-2
6.5344E-1	-3.6926E-1	8.8503E-8	3.4698E-2
5.8674E-1	-4.678E-1	1.542E-7	3.4735E-2
5.0532E-1	-5.5454E-1	2.2096E-7	3.4772E-2
4.1124E-1	-6.2731E-1	2.8595E-7	3.4808E-2
3.0685E-1	-6.8428E-1	3.4618E-7	3.4845E-2
1.948E-1	-7.2402E-1	3.9868E-7	3.4882E-2
7.7902E-2	-7.4555E-1	4.4079E-7	3.4918E-2
-4.0907E-2	-7.4833E-1	4.7035E-7	3.4955E-2
-1.5864E-1	-7.323E-1	4.8597E-7	3.4992E-2
-2.7233E-1	-6.9787E-1	4.8714E-7	3.5028E-2
-3.7912E-1	-6.4591E-1	4.7432E-7	3.5065E-2
-4.7634E-1	-5.7774E-1	4.4891E-7	3.5102E-2
-5.6154E-1	-4.9508E-1	4.1309E-7	3.5138E-2
-6.3259E-1	-4.0001E-1	3.6964E-7	3.5175E-2
-6.8771E-1	-2.9493E-1	3.2165E-7	3.5212E-2
-7.2551E-1	-1.8249E-1	2.722E-7	3.5249E-2
-7.4506E-1	-6.5511E-2	2.2411E-7	3.5285E-2
-7.4588E-1	5.3061E-2	1.7969E-7	3.5322E-2
-7.2795E-1	1.7024E-1	1.4061E-7	3.5359E-2
-6.9172E-1	2.8309E-1	1.0786E-7	3.5396E-2
-6.3813E-1	3.8877E-1	8.1783E-8	3.5432E-2
-5.6853E-1	4.8463E-1	6.2215E-8	3.5469E-2
-4.8467E-1	5.6826E-1	4.8633E-8	3.5506E-2
-3.8866E-1	6.3757E-1	4.0341E-8	3.5543E-2
-2.8294E-1	6.9081E-1	3.6629E-8	3.5579E-2
-1.7015E-1	7.2667E-1	3.6884E-8	3.5616E-2
-5.3148E-2	7.4425E-1	4.065E-8	3.5653E-2
6.5136E-2	7.4311E-1	4.7628E-8	3.569E-2
1.8172E-1	7.2329E-1	5.7623E-8	3.5727E-2
2.9368E-1	6.853E-1	7.0462E-8	3.5763E-2
3.9821E-1	6.3011E-1	8.5901E-8	3.58E-2
4.9267E-1	5.5911E-1	1.0354E-7	3.5837E-2
5.747E-1	4.7409E-1	1.2276E-7	3.5874E-2
6.4224E-1	3.772E-1	1.4272E-7	3.591E-2
6.936E-1	2.7088E-1	1.6238E-7	3.5947E-2
7.2751E-1	1.578E-1	1.8055E-7	3.5984E-2
7.4311E-1	4.0823E-2	1.96E-7	3.6021E-2
7.4002E-1	-7.7121E-2	2.0756E-7	3.6057E-2
7.1834E-1	-1.9306E-1	2.1422E-7	3.6094E-2
6.7861E-1	-3.0409E-1	2.152E-7	3.6131E-2
6.2185E-1	-4.0742E-1	2.1003E-7	3.6168E-2
5.4949E-1	-5.0045E-1	1.9853E-7	3.6204E-2
4.6336E-1	-5.8084E-1	1.8084E-7	3.6241E-2
3.6562E-1	-6.466E-1	1.5739E-7	3.6278E-2
2.5876E-1	-6.9607E-1	1.2884E-7	3.6315E-2
1.4545E-1	-7.2801E-1	9.6091E-8	3.6351E-2
2.8546E-2	-7.4164E-1	6.0224E-8	3.6388E-2
-8.9008E-2	-7.3662E-1	2.2525E-8	3.6425E-2
-2.0426E-1	-7.1309E-1	-1.5531E-8	3.6462E-2
-3.1431E-1	-6.7165E-1	-5.229E-8	3.6498E-2
-4.164E-1	-6.1336E-1	-8.5958E-8	3.6535E-2
-5.0796E-1	-5.3968E-1	-1.1466E-7	3.6572E-2
-5.867E-1	-4.5248E-1	-1.3657E-7	3.6609E-2
-6.5065E-1	-3.5395E-1	-1.4998E-7	3.6646E-2
-6.9821E-1	-2.4659E-1	-1.5355E-7	3.6682E-2
-7.2819E-1	-1.331E-1	-1.4635E-7	3.6719E-2
-7.3986E-1	-1.6325E-2	-1.2806E-7	3.6756E-2
-7.3292E-1	1.0079E-1	-9.8962E-8	3.6793E-2
-7.0756E-1	2.153E-1	-5.9977E-8	3.683E-2
-6.6444E-1	3.2433E-1	-1.258E-8	3.6867E-2
-6.0464E-1	4.2514E-1	4.1325E-8	3.6903E-2
-5.2968E-1	5.152E-1	9.9561E-8	3.694E-2
-4.4146E-1	5.9226E-1	1.5985E-7	3.6977E-2
-3.4219E-1	6.5439E-1	2.1994E-7	3.7014E-2
-2.3439E-1	7.0003E-1	2.7776E-7	3.705E-2
-1.2076E-1	7.2805E-1	3.3143E-7	3.7087E-2
-4.169E-3	7.3775E-1	3.7935E-7	3.7124E-2
1.1245E-1	7.2891E-1	4.2013E-7	3.7161E-2
2.2618E-1	7.0175E-1	4.5263E-7	3.7197E-2
3.3414E-1	6.5697E-1	4.7593E-7	3.7234E-2
4.3364E-1	5.9571E-1	4.8935E-7	3.7271E-2
5.2217E-1	5.1951E-1	4.9254E-7	3.7308E-2
5.9753E-1	4.3031E-1	4.8548E-7	3.7344E-2
6.5781E-1	3.3035E-1	4.6862E-7	3.7381E-2
7.0153E-1	2.2216E-1	4.4292E-7	3.7418E-2
7.2758E-1	1.0845E-1	4.0987E-7	3.7455E-2
7.3533E-1	-7.9119E-3	3.7147E-7	3.7491E-2
7.246E-1	-1.2399E-1	3.3009E-7	3.7528E-2
6.9566E-1	-2.3688E-1	2.8838E-7	3.7565E-2
6.4926E-1	-3.4374E-1	2.4898E-7	3.7602E-2
5.8657E-1	-4.4189E-1	2.1436E-7	3.7638E-2
5.0918E-1	-5.2887E-1	1.8658E-7	3.7675E-2
4.1904E-1	-6.0249E-1	1.6711E-7	3.7712E-2
3.1844E-1	-6.6092E-1	1.5672E-7	3.7749E-2
2.099E-1	-7.027E-1	1.5547E-7	3.7786E-2
9.6166E-2	-7.2679E-1	1.6273E-7	3.7822E-2
-1.9909E-2	-7.326E-1	1.7731E-7	3.7859E-2
-1.354E-1	-7.1999E-1	1.9757E-7	3.7896E-2
-2.4741E-1	-6.893E-1	2.2164E-7	3.7933E-2
-3.5313E-1	-6.413E-1	2.4754E-7	3.797E-2
-4.4989E-1	-5.7723E-1	2.7337E-7	3.8006E-2
-5.3528E-1	-4.9868E-1	2.9738E-7	3.8043E-2
-6.0715E-1	-4.0767E-1	3.1805E-7	3.808E-2
-6.6371E-1	-3.0647E-1	3.3415E-7	3.8117E-2
-7.0355E-1	-1.9764E-1	3.4468E-7	3.8154E-2
-7.2568E-1	-8.3928E-2	3.4893E-7	3.819E-2
-7.2956E-1	3.1814E-2	3.4643E-7	3.8227E-2
-7.151E-1	1.4667E-1	3.3693E-7	3.8264E-2
-6.8268E-1	2.5776E-1	3.2039E-7	3.8301E-2
-6.3312E-1	3.6228E-1	2.9699E-7	3.8337E-2
-5.6769E-1	4.5763E-1	2.6716E-7	3.8374E-2
-4.8804E-1	5.414E-1	2.3155E-7	3.8411E-2
-3.9619E-1	6.115E-1	1.9108E-7	3.8448E-2
-2.9445E-1	6.6618E-1	1.4696E-7	3.8485E-2
-1.8538E-1	7.0408E-1	1.006E-7	3.8521E-2
-7.174E-2	7.2426E-1	5.3687E-8	3.8558E-2
4.3617E-2	7.2621E-1	8.0243E-9	3.8595E-2
1.5779E-1	7.0992E-1	-3.4498E-8	3.8632E-2
2.6791E-1	6.758E-1	-7.204E-8	3.8669E-2
3.7121E-1	6.2472E-1	-1.0293E-7	3.8705E-2
4.651E-1	5.5797E-1	-1.2579E-7	3.8742E-2
5.4723E-1	4.7726E-1	-1.3967E-7	3.8779E-2
