jMRUI Data Textfile

Filename: mm3_corrected_4.7shift.txt

PointsInDataset: 32768     
DatasetsInFile: 1         
SamplingInterval: 3.3333E-2 
ZeroOrderPhase: 0E0       
BeginTime: 0E0       
TransmitterFrequency: 2.9722E8  
MagneticField: 0E0       
TypeOfNucleus: 0E0       
NameOfPatient: 
DateOfExperiment: 
Spectrometer: 
AdditionalInfo: 


Signal and FFT
sig(real)	sig(imag)	fft(real)	fft(imag)
Signal 1 out of 1 in file
7.6E-1	0E0	4.9245E-7	3.0819E-2
7.5007E-1	-1.2247E-1	5.4287E-7	3.0856E-2
7.2053E-1	-2.4174E-1	5.9321E-7	3.0892E-2
6.7215E-1	-3.5468E-1	6.4136E-7	3.0929E-2
6.0621E-1	-4.5836E-1	6.8497E-7	3.0965E-2
5.2442E-1	-5.5005E-1	7.2165E-7	3.1002E-2
4.2893E-1	-6.2736E-1	7.4916E-7	3.1039E-2
3.2222E-1	-6.8828E-1	7.6566E-7	3.1075E-2
2.071E-1	-7.312E-1	7.6986E-7	3.1112E-2
8.6564E-2	-7.55E-1	7.6123E-7	3.1149E-2
-3.623E-2	-7.5907E-1	7.4E-7	3.1185E-2
-1.5807E-1	-7.433E-1	7.0726E-7	3.1222E-2
-2.7578E-1	-7.081E-1	6.6487E-7	3.1258E-2
-3.8627E-1	-6.5439E-1	6.1536E-7	3.1295E-2
-4.8667E-1	-5.8358E-1	5.6171E-7	3.1332E-2
-5.7433E-1	-4.9752E-1	5.0717E-7	3.1368E-2
-6.4698E-1	-3.9846E-1	4.5499E-7	3.1405E-2
-7.0271E-1	-2.8899E-1	4.0811E-7	3.1442E-2
-7.4008E-1	-1.7197E-1	3.6895E-7	3.1478E-2
-7.5809E-1	-5.0458E-2	3.392E-7	3.1515E-2
-7.5629E-1	7.236E-2	3.1961E-7	3.1552E-2
-7.3472E-1	1.9328E-1	3.1001E-7	3.1588E-2
-6.9395E-1	3.0914E-1	3.0924E-7	3.1625E-2
-6.3504E-1	4.1691E-1	3.1533E-7	3.1662E-2
-5.5954E-1	5.1377E-1	3.2563E-7	3.1699E-2
-4.6941E-1	5.972E-1	3.3711E-7	3.1735E-2
-3.6703E-1	6.6501E-1	3.4661E-7	3.1772E-2
-2.5506E-1	7.1543E-1	3.5117E-7	3.1809E-2
-1.3643E-1	7.4714E-1	3.4828E-7	3.1845E-2
-1.4253E-2	7.5933E-1	3.361E-7	3.1882E-2
1.0829E-1	7.5167E-1	3.1363E-7	3.1918E-2
2.2799E-1	7.2435E-1	2.8075E-7	3.1955E-2
3.4172E-1	6.7811E-1	2.3819E-7	3.1992E-2
4.465E-1	6.1415E-1	1.8743E-7	3.2028E-2
5.396E-1	5.3415E-1	1.3053E-7	3.2065E-2
6.1859E-1	4.4019E-1	6.9929E-8	3.2102E-2
6.8139E-1	3.3473E-1	8.2142E-9	3.2139E-2
7.2638E-1	2.2054E-1	-5.2072E-8	3.2175E-2
7.5238E-1	1.006E-1	-1.086E-7	3.2212E-2
7.5871E-1	-2.1953E-2	-1.5935E-7	3.2249E-2
7.4521E-1	-1.4392E-1	-2.027E-7	3.2285E-2
7.1223E-1	-2.621E-1	-2.3744E-7	3.2322E-2
6.6064E-1	-3.7342E-1	-2.6272E-7	3.2359E-2
5.9179E-1	-4.7497E-1	-2.7804E-7	3.2396E-2
5.0748E-1	-5.6408E-1	-2.8316E-7	3.2432E-2
4.0992E-1	-6.3844E-1	-2.7808E-7	3.2469E-2
3.0166E-1	-6.961E-1	-2.6296E-7	3.2506E-2
1.8553E-1	-7.3555E-1	-2.3815E-7	3.2543E-2
6.4571E-2	-7.5578E-1	-2.0417E-7	3.258E-2
-5.8057E-2	-7.5624E-1	-1.6175E-7	3.2616E-2
-1.7915E-1	-7.3694E-1	-1.1186E-7	3.2653E-2
-2.9553E-1	-6.9838E-1	-5.5758E-8	3.269E-2
-4.0418E-1	-6.4158E-1	4.9923E-9	3.2726E-2
-5.0224E-1	-5.6801E-1	6.8517E-8	3.2763E-2
-5.8715E-1	-4.7961E-1	1.3268E-7	3.28E-2
-6.567E-1	-3.787E-1	1.9513E-7	3.2837E-2
-7.0908E-1	-2.679E-1	2.535E-7	3.2873E-2
-7.4291E-1	-1.5012E-1	3.0546E-7	3.291E-2
-7.5732E-1	-2.844E-2	3.4899E-7	3.2947E-2
-7.5193E-1	9.396E-2	3.8251E-7	3.2983E-2
-7.2689E-1	2.1388E-1	4.05E-7	3.302E-2
-6.8286E-1	3.2818E-1	4.1615E-7	3.3057E-2
-6.2098E-1	4.3389E-1	4.1636E-7	3.3093E-2
-5.4289E-1	5.2823E-1	4.0666E-7	3.313E-2
-4.5063E-1	6.0875E-1	3.8862E-7	3.3166E-2
-3.4661E-1	6.7333E-1	3.6415E-7	3.3203E-2
-2.3355E-1	7.2031E-1	3.3528E-7	3.324E-2
-1.1441E-1	7.4844E-1	3.0391E-7	3.3277E-2
7.69E-3	7.5701E-1	2.717E-7	3.3313E-2
1.2956E-1	7.458E-1	2.3991E-7	3.335E-2
2.4802E-1	7.1509E-1	2.0934E-7	3.3387E-2
3.5997E-1	6.657E-1	1.8047E-7	3.3423E-2
4.6248E-1	5.9892E-1	1.5351E-7	3.346E-2
5.5288E-1	5.165E-1	1.2864E-7	3.3497E-2
6.2881E-1	4.2061E-1	1.0615E-7	3.3534E-2
6.8828E-1	3.1374E-1	8.6619E-8	3.357E-2
7.2975E-1	1.987E-1	7.099E-8	3.3607E-2
7.5214E-1	7.8503E-2	6.0554E-8	3.3644E-2
7.5486E-1	-4.3719E-2	5.6838E-8	3.368E-2
7.3785E-1	-1.6477E-1	6.1392E-8	3.3717E-2
7.0156E-1	-2.8148E-1	7.5515E-8	3.3754E-2
6.4695E-1	-3.908E-1	9.9951E-8	3.3791E-2
5.7544E-1	-4.8987E-1	1.3461E-7	3.3827E-2
4.8891E-1	-5.7612E-1	1.7838E-7	3.3864E-2
3.8963E-1	-6.4729E-1	2.2898E-7	3.3901E-2
2.8019E-1	-7.0151E-1	2.8309E-7	3.3938E-2
1.6346E-1	-7.3739E-1	3.3645E-7	3.3974E-2
4.2497E-2	-7.5399E-1	3.8426E-7	3.4011E-2
-7.9546E-2	-7.5087E-1	4.2156E-7	3.4048E-2
-1.9947E-1	-7.2813E-1	4.4378E-7	3.4084E-2
-3.1415E-1	-6.8637E-1	4.4717E-7	3.4121E-2
-4.2059E-1	-6.2668E-1	4.2923E-7	3.4158E-2
-5.16E-1	-5.5063E-1	3.8905E-7	3.4194E-2
-5.9789E-1	-4.6021E-1	3.2746E-7	3.4231E-2
-6.6413E-1	-3.5779E-1	2.4693E-7	3.4267E-2
-7.1299E-1	-2.4606E-1	1.5144E-7	3.4304E-2
-7.4321E-1	-1.2793E-1	4.6049E-8	3.4341E-2
-7.5399E-1	-6.4919E-3	-6.3565E-8	3.4378E-2
-7.4506E-1	1.1507E-1	-1.7163E-7	3.4414E-2
-7.1666E-1	2.3359E-1	-2.7281E-7	3.4451E-2
-6.6954E-1	3.4597E-1	-3.6267E-7	3.4488E-2
-6.0494E-1	4.4926E-1	-4.3797E-7	3.4525E-2
-5.2454E-1	5.4078E-1	-4.9692E-7	3.4561E-2
-4.3047E-1	6.1813E-1	-5.3921E-7	3.4598E-2
-3.2518E-1	6.793E-1	-5.659E-7	3.4635E-2
-2.1143E-1	7.227E-1	-5.7922E-7	3.4672E-2
-9.2193E-2	7.4719E-1	-5.8229E-7	3.4709E-2
2.9412E-2	7.5215E-1	-5.7875E-7	3.4745E-2
1.502E-1	7.3745E-1	-5.7243E-7	3.4782E-2
2.6703E-1	7.0348E-1	-5.6693E-7	3.4819E-2
3.7683E-1	6.5113E-1	-5.6539E-7	3.4856E-2
4.7674E-1	5.8179E-1	-5.7014E-7	3.4892E-2
5.6416E-1	4.9727E-1	-5.826E-7	3.4929E-2
6.3679E-1	3.9979E-1	-6.0312E-7	3.4966E-2
6.9276E-1	2.9189E-1	-6.3105E-7	3.5003E-2
7.3061E-1	1.7641E-1	-6.6478E-7	3.5039E-2
7.4934E-1	5.636E-2	-7.0193E-7	3.5076E-2
7.4848E-1	-6.5115E-2	-7.3964E-7	3.5113E-2
7.2806E-1	-1.8484E-1	-7.748E-7	3.515E-2
6.8862E-1	-2.9969E-1	-8.0438E-7	3.5187E-2
6.3121E-1	-4.0666E-1	-8.2566E-7	3.5223E-2
5.5731E-1	-5.0295E-1	-8.3647E-7	3.526E-2
4.6889E-1	-5.8607E-1	-8.3531E-7	3.5297E-2
3.6824E-1	-6.5383E-1	-8.2141E-7	3.5334E-2
2.5802E-1	-7.0448E-1	-7.9471E-7	3.5371E-2
1.4109E-1	-7.367E-1	-7.5581E-7	3.5408E-2
2.0529E-2	-7.4965E-1	-7.0579E-7	3.5444E-2
-1.0052E-1	-7.43E-1	-6.461E-7	3.5481E-2
-2.1889E-1	-7.1694E-1	-5.7842E-7	3.5518E-2
-3.3149E-1	-6.7215E-1	-5.0455E-7	3.5555E-2
-4.3537E-1	-6.0982E-1	-4.2631E-7	3.5592E-2
-5.2783E-1	-5.3157E-1	-3.455E-7	3.5628E-2
-6.0646E-1	-4.3947E-1	-2.6385E-7	3.5665E-2
-6.692E-1	-3.3593E-1	-1.8305E-7	3.5702E-2
-7.1443E-1	-2.2365E-1	-1.0477E-7	3.5739E-2
-7.4097E-1	-1.0558E-1	-3.0605E-8	3.5775E-2
-7.4813E-1	1.5201E-2	3.786E-8	3.5812E-2
-7.3573E-1	1.3553E-1	9.909E-8	3.5849E-2
-7.0411E-1	2.5226E-1	1.5161E-7	3.5885E-2
-6.5411E-1	3.6234E-1	1.9406E-7	3.5922E-2
-5.8703E-1	4.629E-1	2.2521E-7	3.5959E-2
-5.0465E-1	5.5132E-1	2.4406E-7	3.5995E-2
-4.0912E-1	6.2528E-1	2.4989E-7	3.6032E-2
-3.0294E-1	6.8287E-1	2.4236E-7	3.6069E-2
-1.8889E-1	7.2259E-1	2.2158E-7	3.6106E-2
-6.9966E-2	7.4341E-1	1.8822E-7	3.6142E-2
5.0731E-2	7.4478E-1	1.4352E-7	3.6179E-2
1.7004E-1	7.267E-1	8.9378E-8	3.6216E-2
2.8485E-1	6.8963E-1	2.8255E-8	3.6252E-2
3.9216E-1	6.3455E-1	-3.6863E-8	3.6289E-2
4.8917E-1	5.6292E-1	-1.0264E-7	3.6326E-2
5.7334E-1	4.7662E-1	-1.6558E-7	3.6363E-2
6.4249E-1	3.7791E-1	-2.2231E-7	3.6399E-2
6.9481E-1	2.6937E-1	-2.6982E-7	3.6436E-2
7.2895E-1	1.5384E-1	-3.0577E-7	3.6473E-2
7.4402E-1	3.4358E-2	-3.2866E-7	3.651E-2
7.3964E-1	-8.5963E-2	-3.3802E-7	3.6547E-2
7.1593E-1	-2.0397E-1	-3.3444E-7	3.6584E-2
6.7353E-1	-3.1659E-1	-3.1949E-7	3.662E-2
6.1355E-1	-4.2088E-1	-2.9558E-7	3.6657E-2
5.3756E-1	-5.1411E-1	-2.6564E-7	3.6694E-2
4.4757E-1	-5.9385E-1	-2.3279E-7	3.6731E-2
3.4593E-1	-6.5804E-1	-1.9996E-7	3.6768E-2
2.3531E-1	-7.0499E-1	-1.6952E-7	3.6804E-2
1.186E-1	-7.3349E-1	-1.43E-7	3.6841E-2
-1.15E-3	-7.4281E-1	-1.2087E-7	3.6878E-2
-1.208E-1	-7.3271E-1	-1.025E-7	3.6915E-2
-2.3723E-1	-7.0347E-1	-8.6257E-8	3.6952E-2
-3.4739E-1	-6.5587E-1	-6.9706E-8	3.6988E-2
-4.4841E-1	-5.9115E-1	-4.9968E-8	3.7025E-2
-5.3766E-1	-5.1102E-1	-2.4121E-8	3.7062E-2
-6.128E-1	-4.1758E-1	1.0371E-8	3.7099E-2
-6.7189E-1	-3.1329E-1	5.5278E-8	3.7136E-2
-7.1339E-1	-2.0086E-1	1.1131E-7	3.7172E-2
-7.3622E-1	-8.3255E-2	1.7794E-7	3.7209E-2
-7.3979E-1	3.6458E-2	2.5344E-7	3.7246E-2
-7.2404E-1	1.5515E-1	3.3493E-7	3.7283E-2
-6.8937E-1	2.6972E-1	4.1877E-7	3.732E-2
-6.3671E-1	3.7717E-1	5.0083E-7	3.7356E-2
-5.6744E-1	4.7469E-1	5.7697E-7	3.7393E-2
-4.8338E-1	5.5976E-1	6.4344E-7	3.743E-2
-3.8675E-1	6.3015E-1	6.9724E-7	3.7466E-2
-2.8006E-1	6.8403E-1	7.3637E-7	3.7503E-2
-1.6613E-1	7.2E-1	7.6005E-7	3.754E-2
-4.7917E-2	7.3713E-1	7.6862E-7	3.7577E-2
7.1471E-2	7.3499E-1	7.6351E-7	3.7613E-2
1.8892E-1	7.1364E-1	7.4702E-7	3.765E-2
3.0135E-1	6.7366E-1	7.2195E-7	3.7687E-2
4.0584E-1	6.161E-1	6.9135E-7	3.7723E-2
4.9966E-1	5.4248E-1	6.5813E-7	3.776E-2
5.8036E-1	4.5473E-1	6.2478E-7	3.7797E-2
6.4585E-1	3.5515E-1	5.9314E-7	3.7834E-2
6.9441E-1	2.4636E-1	5.6427E-7	3.787E-2
7.248E-1	1.3119E-1	5.3839E-7	3.7907E-2
7.3623E-1	1.2679E-2	5.1493E-7	3.7944E-2
7.2842E-1	-1.0609E-1	4.9267E-7	3.7981E-2
7.0157E-1	-2.2201E-1	4.6994E-7	3.8017E-2
6.5641E-1	-3.3205E-1	4.4486E-7	3.8054E-2
5.9412E-1	-4.3335E-1	4.1561E-7	3.8091E-2
5.1636E-1	-5.2325E-1	3.8066E-7	3.8128E-2
4.2515E-1	-5.9941E-1	3.3894E-7	3.8165E-2
3.2289E-1	-6.5987E-1	2.9003E-7	3.8201E-2
2.1227E-1	-7.0304E-1	2.3417E-7	3.8238E-2
9.617E-2	-7.2781E-1	1.7229E-7	3.8275E-2
-2.2361E-2	-7.3354E-1	1.0584E-7	3.8312E-2
-1.4023E-1	-7.2011E-1	3.6724E-8	3.8348E-2
-2.5435E-1	-6.8786E-1	-3.295E-8	3.8385E-2
-3.6174E-1	-6.3766E-1	-1.0107E-7	3.8422E-2
-4.5961E-1	-5.7084E-1	-1.6571E-7	3.8459E-2
-5.454E-1	-4.8914E-1	-2.2534E-7	3.8496E-2
-6.1687E-1	-3.9473E-1	-2.7889E-7	3.8533E-2
-6.7218E-1	-2.9006E-1	-3.2587E-7	3.8569E-2
-7.0989E-1	-1.7789E-1	-3.6632E-7	3.8606E-2
-7.2901E-1	-6.1148E-2	-4.0076E-7	3.8643E-2
-7.2908E-1	5.7107E-2	-4.3005E-7	3.868E-2
-7.1009E-1	1.7378E-1	-4.5528E-7	3.8717E-2
-6.7256E-1	2.8584E-1	-4.7754E-7	3.8754E-2
-6.1749E-1	3.9034E-1	-4.9779E-7	3.879E-2
-5.4632E-1	4.8456E-1	-5.1675E-7	3.8827E-2
-4.6092E-1	5.6606E-1	-5.3479E-7	3.8864E-2
-3.6355E-1	6.327E-1	-5.5192E-7	3.8901E-2
-2.5675E-1	6.8276E-1	-5.6783E-7	3.8938E-2
-1.4332E-1	7.1495E-1	-5.8195E-7	3.8975E-2
-2.6226E-2	7.2843E-1	-5.9358E-7	3.9012E-2
9.1464E-2	7.2286E-1	-6.0199E-7	3.9048E-2
2.0667E-1	6.9841E-1	-6.0653E-7	3.9085E-2
3.164E-1	6.5573E-1	-6.0673E-7	3.9122E-2
4.1777E-1	5.9595E-1	-6.023E-7	3.9159E-2
5.0815E-1	5.2064E-1	-5.9315E-7	3.9196E-2
5.8518E-1	4.3179E-1	-5.7937E-7	3.9233E-2
6.4686E-1	3.3172E-1	-5.611E-7	3.927E-2
6.916E-1	2.2306E-1	-5.3853E-7	3.9306E-2
7.1822E-1	1.0865E-1	-5.118E-7	3.9343E-2
