jMRUI Data Textfile

Filename: mm4_corrected_4.7shift.txt

PointsInDataset: 32768     
DatasetsInFile: 1         
SamplingInterval: 3.3333E-2 
ZeroOrderPhase: 0E0       
BeginTime: 0E0       
TransmitterFrequency: 2.9722E8  
MagneticField: 0E0       
TypeOfNucleus: 0E0       
NameOfPatient: 
DateOfExperiment: 
Spectrometer: 
AdditionalInfo: 


Signal and FFT
sig(real)	sig(imag)	fft(real)	fft(imag)
Signal 1 out of 1 in file
1.1E-1	0E0	2.2248E-9	2.913E-3
1.0938E-1	-1.1619E-2	2.3611E-8	2.9182E-3
1.0755E-1	-2.3108E-2	4.5174E-8	2.9235E-3
1.045E-1	-3.4338E-2	6.4477E-8	2.9288E-3
1.0029E-1	-4.5184E-2	8.023E-8	2.9341E-3
9.4957E-2	-5.5525E-2	9.2382E-8	2.9394E-3
8.8561E-2	-6.5244E-2	1.0155E-7	2.9446E-3
8.1174E-2	-7.4233E-2	1.0819E-7	2.9499E-3
7.2878E-2	-8.2392E-2	1.1194E-7	2.9552E-3
6.3767E-2	-8.9629E-2	1.115E-7	2.9604E-3
5.3943E-2	-9.5862E-2	1.0503E-7	2.9657E-3
4.3516E-2	-1.0102E-1	9.0701E-8	2.971E-3
3.2601E-2	-1.0505E-1	6.7429E-8	2.9762E-3
2.1322E-2	-1.0791E-1	3.5393E-8	2.9815E-3
9.8046E-3	-1.0956E-1	-3.5848E-9	2.9868E-3
-1.8224E-3	-1.0998E-1	-4.6041E-8	2.9921E-3
-1.3429E-2	-1.0917E-1	-8.7414E-8	2.9974E-3
-2.4885E-2	-1.0714E-1	-1.2311E-7	3.0027E-3
-3.6063E-2	-1.0391E-1	-1.4972E-7	3.008E-3
-4.6836E-2	-9.9521E-2	-1.6586E-7	3.0133E-3
-5.7086E-2	-9.4016E-2	-1.7198E-7	3.0187E-3
-6.6697E-2	-8.746E-2	-1.694E-7	3.024E-3
-7.5561E-2	-7.9925E-2	-1.5895E-7	3.0293E-3
-8.358E-2	-7.1496E-2	-1.4022E-7	3.0346E-3
-9.0663E-2	-6.2267E-2	-1.1174E-7	3.04E-3
-9.6732E-2	-5.2342E-2	-7.2137E-8	3.0453E-3
-1.0172E-1	-4.1831E-2	-2.1515E-8	3.0506E-3
-1.0557E-1	-3.0852E-2	3.749E-8	3.0559E-3
-1.0823E-1	-1.9529E-2	9.9546E-8	3.0612E-3
-1.0969E-1	-7.987E-3	1.5738E-7	3.0664E-3
-1.0992E-1	3.6438E-3	2.0327E-7	3.0717E-3
-1.0892E-1	1.5234E-2	2.3076E-7	3.0769E-3
-1.067E-1	2.6652E-2	2.363E-7	3.0821E-3
-1.0328E-1	3.7773E-2	2.2014E-7	3.0874E-3
-9.8714E-2	4.847E-2	1.8643E-7	3.0926E-3
-9.3041E-2	5.8625E-2	1.4227E-7	3.0979E-3
-8.6327E-2	6.8124E-2	9.5936E-8	3.1031E-3
-7.8647E-2	7.686E-2	5.4902E-8	3.1084E-3
-7.0087E-2	8.4736E-2	2.4051E-8	3.1137E-3
-6.0744E-2	9.1663E-2	4.7355E-9	3.119E-3
-5.0721E-2	9.7565E-2	-5.1162E-9	3.1243E-3
-4.0131E-2	1.0238E-1	-9.8583E-9	3.1296E-3
-2.9092E-2	1.0604E-1	-1.4339E-8	3.1349E-3
-1.7729E-2	1.0852E-1	-2.2075E-8	3.1402E-3
-6.1671E-3	1.0978E-1	-3.4086E-8	3.1455E-3
5.4631E-3	1.0982E-1	-4.8837E-8	3.1508E-3
1.7032E-2	1.0862E-1	-6.3294E-8	3.1561E-3
2.8409E-2	1.0621E-1	-7.4551E-8	3.1614E-3
3.9468E-2	1.0262E-1	-8.119E-8	3.1667E-3
5.0086E-2	9.7871E-2	-8.3741E-8	3.172E-3
6.0142E-2	9.2031E-2	-8.4056E-8	3.1773E-3
6.9525E-2	8.5162E-2	-8.4059E-8	3.1826E-3
7.813E-2	7.734E-2	-8.455E-8	3.1879E-3
8.586E-2	6.8653E-2	-8.4722E-8	3.1932E-3
9.2629E-2	5.9199E-2	-8.2571E-8	3.1985E-3
9.8362E-2	4.9082E-2	-7.5956E-8	3.2038E-3
1.0299E-1	3.8417E-2	-6.3736E-8	3.2091E-3
1.0647E-1	2.7323E-2	-4.6452E-8	3.2144E-3
1.0876E-1	1.5923E-2	-2.6274E-8	3.2197E-3
1.0983E-1	4.3459E-3	-6.3053E-9	3.225E-3
1.0967E-1	-7.2793E-3	1.0432E-8	3.2303E-3
1.0829E-1	-1.8822E-2	2.1905E-8	3.2356E-3
1.0569E-1	-3.0154E-2	2.7567E-8	3.2409E-3
1.0191E-1	-4.1148E-2	2.8297E-8	3.2461E-3
9.6992E-2	-5.1681E-2	2.5862E-8	3.2514E-3
9.0988E-2	-6.1635E-2	2.2215E-8	3.2567E-3
8.3966E-2	-7.0899E-2	1.8935E-8	3.262E-3
7.6006E-2	-7.937E-2	1.6997E-8	3.2673E-3
6.7195E-2	-8.6951E-2	1.6825E-8	3.2726E-3
5.7633E-2	-9.356E-2	1.8387E-8	3.2779E-3
4.7427E-2	-9.9121E-2	2.1178E-8	3.2832E-3
3.669E-2	-1.0357E-1	2.4121E-8	3.2884E-3
2.5544E-2	-1.0687E-1	2.5609E-8	3.2937E-3
1.4113E-2	-1.0896E-1	2.3822E-8	3.299E-3
2.5245E-3	-1.0984E-1	1.7322E-8	3.3043E-3
-9.0913E-3	-1.0949E-1	5.6883E-9	3.3096E-3
-2.0605E-2	-1.0791E-1	-1.011E-8	3.3149E-3
-3.1887E-2	-1.0513E-1	-2.7804E-8	3.3201E-3
-4.2811E-2	-1.0117E-1	-4.4409E-8	3.3254E-3
-5.3256E-2	-9.6078E-2	-5.7084E-8	3.3308E-3
-6.3105E-2	-8.9912E-2	-6.3946E-8	3.3361E-3
-7.2246E-2	-8.274E-2	-6.4498E-8	3.3414E-3
-8.0579E-2	-7.4644E-2	-5.957E-8	3.3467E-3
-8.8009E-2	-6.5713E-2	-5.0861E-8	3.352E-3
-9.4454E-2	-5.6047E-2	-4.0386E-8	3.3573E-3
-9.9842E-2	-4.5755E-2	-3.0062E-8	3.3626E-3
-1.0411E-1	-3.4951E-2	-2.1518E-8	3.3678E-3
-1.0722E-1	-2.3758E-2	-1.6064E-8	3.3731E-3
-1.0912E-1	-1.2299E-2	-1.4699E-8	3.3784E-3
-1.0981E-1	-7.0398E-4	-1.8093E-8	3.3837E-3
-1.0926E-1	1.0898E-2	-2.653E-8	3.389E-3
-1.075E-1	2.2378E-2	-3.9822E-8	3.3943E-3
-1.0453E-1	3.3606E-2	-5.7206E-8	3.3995E-3
-1.0039E-1	4.4457E-2	-7.7268E-8	3.4048E-3
-9.5128E-2	5.481E-2	-9.7982E-8	3.4101E-3
-8.8803E-2	6.4549E-2	-1.1695E-7	3.4154E-3
-8.1485E-2	7.3565E-2	-1.3188E-7	3.4208E-3
-7.3256E-2	8.1757E-2	-1.4105E-7	3.4261E-3
-6.4207E-2	8.9033E-2	-1.4372E-7	3.4314E-3
-5.4442E-2	9.5313E-2	-1.402E-7	3.4367E-3
-4.4067E-2	1.0053E-1	-1.3157E-7	3.442E-3
-3.3201E-2	1.0461E-1	-1.1934E-7	3.4473E-3
-2.1964E-2	1.0753E-1	-1.0512E-7	3.4526E-3
-1.0483E-2	1.0924E-1	-9.04E-8	3.4579E-3
1.1147E-3	1.0974E-1	-7.6382E-8	3.4632E-3
1.2699E-2	1.09E-1	-6.375E-8	3.4685E-3
2.414E-2	1.0704E-1	-5.2524E-8	3.4738E-3
3.531E-2	1.0389E-1	-4.2074E-8	3.4791E-3
4.6084E-2	9.9574E-2	-3.1429E-8	3.4844E-3
5.6341E-2	9.4145E-2	-1.9849E-8	3.4897E-3
6.5967E-2	8.7663E-2	-7.3853E-9	3.495E-3
7.4854E-2	8.0201E-2	4.8602E-9	3.5003E-3
8.2902E-2	7.1842E-2	1.5012E-8	3.5056E-3
9.0023E-2	6.268E-2	2.1195E-8	3.5109E-3
9.6135E-2	5.2818E-2	2.2521E-8	3.5162E-3
1.0117E-1	4.2366E-2	1.9813E-8	3.5215E-3
1.0507E-1	3.1441E-2	1.5647E-8	3.5268E-3
1.078E-1	2.0165E-2	1.3568E-8	3.5321E-3
1.0932E-1	8.6653E-3	1.6785E-8	3.5374E-3
1.0962E-1	-2.9306E-3	2.6942E-8	3.5427E-3
1.0869E-1	-1.4492E-2	4.3565E-8	3.548E-3
1.0655E-1	-2.5891E-2	6.4353E-8	3.5533E-3
1.0321E-1	-3.6999E-2	8.602E-8	3.5585E-3
9.8722E-2	-4.7691E-2	1.0521E-7	3.5638E-3
9.3127E-2	-5.7849E-2	1.1915E-7	3.5691E-3
8.6491E-2	-6.7359E-2	1.2602E-7	3.5744E-3
7.8888E-2	-7.6113E-2	1.2519E-7	3.5796E-3
7.0404E-2	-8.4016E-2	1.1739E-7	3.5849E-3
6.1132E-2	-9.0977E-2	1.0461E-7	3.5902E-3
5.1177E-2	-9.692E-2	8.9756E-8	3.5955E-3
4.0652E-2	-1.0178E-1	7.5858E-8	3.6008E-3
2.9672E-2	-1.055E-1	6.5328E-8	3.6061E-3
1.8362E-2	-1.0803E-1	5.9296E-8	3.6114E-3
6.8472E-3	-1.0936E-1	5.7299E-8	3.6167E-3
-4.7425E-3	-1.0947E-1	5.7375E-8	3.622E-3
-1.6278E-2	-1.0835E-1	5.6571E-8	3.6272E-3
-2.763E-2	-1.0602E-1	5.1832E-8	3.6325E-3
-3.8671E-2	-1.025E-1	4.1046E-8	3.6378E-3
-4.9278E-2	-9.7835E-2	2.393E-8	3.6431E-3
-5.9333E-2	-9.2077E-2	2.3674E-9	3.6484E-3
-6.8723E-2	-8.529E-2	-1.9979E-8	3.6537E-3
-7.7342E-2	-7.7549E-2	-3.8712E-8	3.659E-3
-8.5096E-2	-6.8941E-2	-5.0046E-8	3.6643E-3
-9.1896E-2	-5.9563E-2	-5.1964E-8	3.6697E-3
-9.7667E-2	-4.952E-2	-4.4742E-8	3.675E-3
-1.0235E-1	-3.8925E-2	-3.0663E-8	3.6803E-3
-1.0588E-1	-2.7895E-2	-1.308E-8	3.6856E-3
-1.0822E-1	-1.6554E-2	4.7263E-9	3.6909E-3
-1.0936E-1	-5.0297E-3	2.0381E-8	3.6962E-3
-1.0927E-1	6.5494E-3	3.2641E-8	3.7015E-3
-1.0796E-1	1.8054E-2	4.1111E-8	3.7068E-3
-1.0545E-1	2.9355E-2	4.5794E-8	3.7121E-3
-1.0175E-1	4.0326E-2	4.6861E-8	3.7173E-3
-9.6913E-2	5.0844E-2	4.4752E-8	3.7226E-3
-9.0994E-2	6.0792E-2	4.0451E-8	3.7279E-3
-8.4058E-2	7.0059E-2	3.5596E-8	3.7332E-3
-7.6183E-2	7.854E-2	3.2206E-8	3.7385E-3
-6.7456E-2	8.6142E-2	3.2055E-8	3.7438E-3
-5.7976E-2	9.2779E-2	3.5952E-8	3.7491E-3
-4.7848E-2	9.8377E-2	4.3361E-8	3.7544E-3
-3.7187E-2	1.0287E-1	5.2628E-8	3.7597E-3
-2.6111E-2	1.0622E-1	6.1781E-8	3.765E-3
-1.4744E-2	1.0837E-1	6.9511E-8	3.7703E-3
-3.2139E-3	1.0932E-1	7.5753E-8	3.7756E-3
8.3505E-3	1.0904E-1	8.1497E-8	3.7809E-3
1.982E-2	1.0754E-1	8.7898E-8	3.7862E-3
3.1066E-2	1.0484E-1	9.5229E-8	3.7915E-3
4.1962E-2	1.0096E-1	1.023E-7	3.7968E-3
5.2388E-2	9.5957E-2	1.0669E-7	3.802E-3
6.2226E-2	8.988E-2	1.0573E-7	3.8073E-3
7.1366E-2	8.2798E-2	9.7514E-8	3.8126E-3
7.9707E-2	7.4791E-2	8.1595E-8	3.8179E-3
8.7154E-2	6.5949E-2	5.8916E-8	3.8232E-3
9.3626E-2	5.637E-2	3.139E-8	3.8284E-3
9.9049E-2	4.6161E-2	1.487E-9	3.8337E-3
1.0336E-1	3.5438E-2	-2.7862E-8	3.8391E-3
1.0652E-1	2.432E-2	-5.3193E-8	3.8444E-3
1.0848E-1	1.2932E-2	-7.0671E-8	3.8497E-3
1.0923E-1	1.4007E-3	-7.6803E-8	3.855E-3
1.0876E-1	-1.0145E-2	-6.9583E-8	3.8604E-3
1.0707E-1	-2.1574E-2	-4.9572E-8	3.8657E-3
1.0419E-1	-3.2761E-2	-2.0287E-8	3.871E-3
1.0014E-1	-4.358E-2	1.2374E-8	3.8763E-3
9.4967E-2	-5.3909E-2	4.1516E-8	3.8816E-3
8.8734E-2	-6.3633E-2	6.0953E-8	3.8869E-3
8.151E-2	-7.2644E-2	6.6699E-8	3.8921E-3
7.3375E-2	-8.0841E-2	5.7876E-8	3.8974E-3
6.442E-2	-8.8132E-2	3.6864E-8	3.9027E-3
5.4746E-2	-9.4435E-2	8.7093E-9	3.908E-3
4.4461E-2	-9.9681E-2	-2.0114E-8	3.9133E-3
3.3681E-2	-1.0381E-1	-4.3308E-8	3.9186E-3
2.2525E-2	-1.0678E-1	-5.6347E-8	3.9239E-3
1.1119E-2	-1.0855E-1	-5.7615E-8	3.9292E-3
-4.0885E-4	-1.0911E-1	-4.873E-8	3.9346E-3
-1.1931E-2	-1.0845E-1	-3.3939E-8	3.9399E-3
-2.3317E-2	-1.0657E-1	-1.8746E-8	3.9452E-3
-3.444E-2	-1.035E-1	-8.1856E-9	3.9505E-3
-4.5177E-2	-9.9279E-2	-5.2877E-9	3.9557E-3
-5.5406E-2	-9.3943E-2	-1.0215E-8	3.961E-3
-6.5013E-2	-8.7558E-2	-2.0373E-8	3.9663E-3
-7.3891E-2	-8.0194E-2	-3.1485E-8	3.9716E-3
-8.1942E-2	-7.1934E-2	-3.9257E-8	3.9769E-3
-8.9074E-2	-6.2871E-2	-4.1004E-8	3.9823E-3
-9.5208E-2	-5.3106E-2	-3.6548E-8	3.9876E-3
-1.0028E-1	-4.2749E-2	-2.802E-8	3.9929E-3
-1.0422E-1	-3.1915E-2	-1.8672E-8	3.9982E-3
-1.07E-1	-2.0726E-2	-1.133E-8	4.0035E-3
-1.0858E-1	-9.3072E-3	-7.2277E-9	4.0088E-3
-1.0895E-1	2.2137E-3	-5.7202E-9	4.0141E-3
-1.0809E-1	1.3708E-2	-4.8387E-9	4.0194E-3
-1.0603E-1	2.5046E-2	-2.2432E-9	4.0247E-3
-1.0278E-1	3.6102E-2	3.9424E-9	4.03E-3
-9.8385E-2	4.6753E-2	1.4664E-8	4.0353E-3
-9.2888E-2	5.6878E-2	2.9762E-8	4.0406E-3
-8.6352E-2	6.6365E-2	4.7901E-8	4.0459E-3
-7.8852E-2	7.5108E-2	6.6571E-8	4.0512E-3
-7.0471E-2	8.3009E-2	8.2359E-8	4.0565E-3
-6.1303E-2	8.998E-2	9.1663E-8	4.0618E-3
-5.1451E-2	9.5942E-2	9.1812E-8	4.067E-3
-4.1025E-2	1.0083E-1	8.2149E-8	4.0723E-3
-3.0142E-2	1.0459E-1	6.4538E-8	4.0776E-3
-1.8924E-2	1.0718E-1	4.2931E-8	4.0829E-3
-7.4964E-3	1.0857E-1	2.2094E-8	4.0882E-3
4.0127E-3	1.0874E-1	6.0217E-9	4.0935E-3
1.5475E-2	1.077E-1	-3.2979E-9	4.0988E-3
2.6761E-2	1.0545E-1	-6.3104E-9	4.1041E-3
3.7747E-2	1.0202E-1	-5.4252E-9	4.1094E-3
4.8307E-2	9.7457E-2	-3.9334E-9	4.1147E-3
5.8325E-2	9.18E-2	-4.778E-9	4.12E-3
6.7689E-2	8.5118E-2	-9.6233E-9	4.1253E-3
7.6293E-2	7.7484E-2	-1.85E-8	4.1306E-3
8.4042E-2	6.8985E-2	-3.0054E-8	4.1359E-3
9.085E-2	5.9716E-2	-4.2201E-8	4.1412E-3
