jMRUI Data Textfile

Filename: lip_c_correct.txt

PointsInDataset: 32768     
DatasetsInFile: 1         
SamplingInterval: 3.3333E-2 
ZeroOrderPhase: 0E0       
BeginTime: 0E0       
TransmitterFrequency: 2.9722E8  
MagneticField: 0E0       
TypeOfNucleus: 0E0       
NameOfPatient: 
DateOfExperiment: 
Spectrometer: 
AdditionalInfo: 


Signal and FFT
sig(real)	sig(imag)	fft(real)	fft(imag)
Signal 1 out of 1 in file
4.1E-1	0E0	1.0371E-7	1.5289E-2
4.054E-1	-6.0801E-2	5.4354E-8	1.5308E-2
3.9169E-1	-1.202E-1	1.5964E-8	1.5328E-2
3.6922E-1	-1.7682E-1	-5.8192E-9	1.5348E-2
3.3849E-1	-2.2937E-1	-7.33E-9	1.5368E-2
3.0025E-1	-2.7663E-1	1.1413E-8	1.5388E-2
2.554E-1	-3.1753E-1	4.5853E-8	1.5407E-2
2.0498E-1	-3.5115E-1	8.7449E-8	1.5427E-2
1.5018E-1	-3.7672E-1	1.2566E-7	1.5447E-2
9.2293E-2	-3.9371E-1	1.5084E-7	1.5467E-2
3.2664E-2	-4.0175E-1	1.57E-7	1.5486E-2
-2.7318E-2	-4.007E-1	1.4347E-7	1.5506E-2
-8.6262E-2	-3.9064E-1	1.1476E-7	1.5526E-2
-1.4281E-1	-3.7187E-1	7.8775E-8	1.5545E-2
-1.9567E-1	-3.4486E-1	4.4185E-8	1.5565E-2
-2.4364E-1	-3.1032E-1	1.7922E-8	1.5585E-2
-2.8564E-1	-2.6911E-1	3.5984E-9	1.5605E-2
-3.2076E-1	-2.2223E-1	1.1406E-9	1.5625E-2
-3.4823E-1	-1.7084E-1	7.454E-9	1.5644E-2
-3.6749E-1	-1.1616E-1	1.7631E-8	1.5664E-2
-3.7816E-1	-5.952E-2	2.623E-8	1.5684E-2
-3.8011E-1	-2.2508E-3	2.8354E-8	1.5704E-2
-3.7337E-1	5.4296E-2	2.0475E-8	1.5723E-2
-3.582E-1	1.088E-1	1.0489E-9	1.5743E-2
-3.3506E-1	1.6002E-1	-2.9148E-8	1.5763E-2
-3.0461E-1	2.0677E-1	-6.7107E-8	1.5783E-2
-2.6764E-1	2.4802E-1	-1.0816E-7	1.5803E-2
-2.2514E-1	2.8288E-1	-1.4694E-7	1.5822E-2
-1.7817E-1	3.1059E-1	-1.7834E-7	1.5842E-2
-1.2793E-1	3.3062E-1	-1.9824E-7	1.5862E-2
-7.5661E-2	3.426E-1	-2.0384E-7	1.5882E-2
-2.2638E-2	3.4637E-1	-1.937E-7	1.5902E-2
2.9857E-2	3.4198E-1	-1.6781E-7	1.5921E-2
8.0571E-2	3.2967E-1	-1.2784E-7	1.5941E-2
1.2831E-1	3.0986E-1	-7.7443E-8	1.5961E-2
1.7199E-1	2.8317E-1	-2.2204E-8	1.5981E-2
2.106E-1	2.5037E-1	3.1011E-8	1.6001E-2
2.4332E-1	2.1237E-1	7.5408E-8	1.602E-2
2.6944E-1	1.702E-1	1.0589E-7	1.604E-2
2.8847E-1	1.2497E-1	1.2036E-7	1.606E-2
3.0006E-1	7.7842E-2	1.2005E-7	1.608E-2
3.0409E-1	3.0031E-2	1.0886E-7	1.6099E-2
3.0061E-1	-1.727E-2	9.1715E-8	1.6119E-2
2.8985E-1	-6.2893E-2	7.2895E-8	1.6139E-2
2.7225E-1	-1.0573E-1	5.4989E-8	1.6159E-2
2.4839E-1	-1.4477E-1	3.8941E-8	1.6178E-2
2.1901E-1	-1.7911E-1	2.5048E-8	1.6198E-2
1.8497E-1	-2.0798E-1	1.4206E-8	1.6218E-2
1.4725E-1	-2.3076E-1	8.5198E-9	1.6238E-2
1.0689E-1	-2.4701E-1	1.0798E-8	1.6258E-2
6.4987E-2	-2.5645E-1	2.3143E-8	1.6277E-2
2.2667E-2	-2.5899E-1	4.5473E-8	1.6297E-2
-1.8963E-2	-2.5473E-1	7.4875E-8	1.6317E-2
-5.8827E-2	-2.4393E-1	1.0618E-7	1.6337E-2
-9.5918E-2	-2.2702E-1	1.3344E-7	1.6356E-2
-1.2931E-1	-2.0459E-1	1.5147E-7	1.6376E-2
-1.5821E-1	-1.7736E-1	1.5693E-7	1.6396E-2
-1.8194E-1	-1.4616E-1	1.4864E-7	1.6416E-2
-1.9997E-1	-1.1192E-1	1.2749E-7	1.6435E-2
-2.1194E-1	-7.5647E-2	9.6052E-8	1.6455E-2
-2.1765E-1	-3.8361E-2	5.8227E-8	1.6475E-2
-2.1709E-1	-1.1094E-3	1.8688E-8	1.6495E-2
-2.1039E-1	3.5081E-2	-1.7755E-8	1.6515E-2
-1.9788E-1	6.923E-2	-4.683E-8	1.6534E-2
-1.8E-1	1.0042E-1	-6.539E-8	1.6554E-2
-1.5737E-1	1.2784E-1	-7.184E-8	1.6574E-2
-1.3072E-1	1.5079E-1	-6.6376E-8	1.6594E-2
-1.0087E-1	1.6869E-1	-5.0985E-8	1.6614E-2
-6.8716E-2	1.8112E-1	-2.9092E-8	1.6633E-2
-3.5228E-2	1.8781E-1	-4.8272E-9	1.6653E-2
-1.3853E-3	1.8867E-1	1.795E-8	1.6673E-2
3.1831E-2	1.8373E-1	3.6565E-8	1.6693E-2
6.3467E-2	1.7324E-1	5.0034E-8	1.6713E-2
9.2622E-2	1.5755E-1	5.9049E-8	1.6732E-2
1.1847E-1	1.3719E-1	6.5538E-8	1.6752E-2
1.403E-1	1.128E-1	7.2026E-8	1.6772E-2
1.5749E-1	8.5118E-2	8.0871E-8	1.6792E-2
1.6958E-1	5.4994E-2	9.3387E-8	1.6812E-2
1.7625E-1	2.3324E-2	1.0894E-7	1.6831E-2
1.7733E-1	-8.9514E-3	1.2445E-7	1.6851E-2
1.728E-1	-4.088E-2	1.3478E-7	1.6871E-2
1.6282E-1	-7.1522E-2	1.3427E-7	1.6891E-2
1.4768E-1	-9.9979E-2	1.1897E-7	1.691E-2
1.2783E-1	-1.2541E-1	8.8682E-8	1.693E-2
1.0385E-1	-1.4708E-1	4.7703E-8	1.695E-2
7.643E-2	-1.6433E-1	3.894E-9	1.697E-2
4.6362E-2	-1.7664E-1	-3.3667E-8	1.6989E-2
1.4508E-2	-1.8364E-1	-5.7457E-8	1.7009E-2
-1.8215E-2	-1.851E-1	-6.3694E-8	1.7029E-2
-5.0866E-2	-1.8093E-1	-5.3267E-8	1.7049E-2
-8.2505E-2	-1.7121E-1	-3.1232E-8	1.7069E-2
-1.1221E-1	-1.5618E-1	-5.088E-9	1.7089E-2
-1.3913E-1	-1.3622E-1	1.7691E-8	1.7108E-2
-1.6245E-1	-1.1184E-1	3.2031E-8	1.7128E-2
-1.8149E-1	-8.3693E-2	3.6568E-8	1.7148E-2
-1.9565E-1	-5.2525E-2	3.3314E-8	1.7168E-2
-2.045E-1	-1.9173E-2	2.5951E-8	1.7187E-2
-2.0771E-1	1.5462E-2	1.7892E-8	1.7207E-2
-2.0513E-1	5.0438E-2	1.1243E-8	1.7227E-2
-1.9674E-1	8.4797E-2	6.9961E-9	1.7247E-2
-1.8272E-1	1.1759E-1	5.8251E-9	1.7267E-2
-1.6335E-1	1.4791E-1	8.5346E-9	1.7287E-2
-1.3909E-1	1.749E-1	1.5757E-8	1.7306E-2
-1.1052E-1	1.978E-1	2.7245E-8	1.7326E-2
-7.8347E-2	2.1592E-1	4.1465E-8	1.7346E-2
-4.3371E-2	2.2874E-1	5.5944E-8	1.7366E-2
-6.4756E-3	2.3583E-1	6.8297E-8	1.7386E-2
3.1401E-2	2.3693E-1	7.7366E-8	1.7405E-2
6.9285E-2	2.3193E-1	8.378E-8	1.7425E-2
1.062E-1	2.2088E-1	8.9452E-8	1.7445E-2
1.4117E-1	2.0399E-1	9.6168E-8	1.7465E-2
1.733E-1	1.816E-1	1.0405E-7	1.7484E-2
2.0171E-1	1.5421E-1	1.109E-7	1.7504E-2
2.2565E-1	1.2247E-1	1.1295E-7	1.7524E-2
2.4446E-1	8.7101E-2	1.0664E-7	1.7544E-2
2.5762E-1	4.8959E-2	9.0538E-8	1.7564E-2
2.6471E-1	8.959E-3	6.6206E-8	1.7583E-2
2.6552E-1	-3.193E-2	3.7925E-8	1.7603E-2
2.5994E-1	-7.2711E-2	1.1331E-8	1.7623E-2
2.4805E-1	-1.1238E-1	-8.2915E-9	1.7643E-2
2.3007E-1	-1.4997E-1	-1.7428E-8	1.7663E-2
2.064E-1	-1.8453E-1	-1.5033E-8	1.7682E-2
1.7755E-1	-2.1521E-1	-2.3629E-9	1.7702E-2
1.4417E-1	-2.4124E-1	1.7801E-8	1.7722E-2
1.0703E-1	-2.6196E-1	4.2021E-8	1.7742E-2
6.6993E-2	-2.7683E-1	6.6695E-8	1.7762E-2
2.4983E-2	-2.8547E-1	8.8124E-8	1.7781E-2
-1.8014E-2	-2.8763E-1	1.0256E-7	1.7801E-2
-6.0989E-2	-2.8323E-1	1.0671E-7	1.7821E-2
-1.0293E-1	-2.7233E-1	9.868E-8	1.7841E-2
-1.4286E-1	-2.5517E-1	7.8869E-8	1.7861E-2
-1.7983E-1	-2.3213E-1	5.0123E-8	1.788E-2
-2.1297E-1	-2.0372E-1	1.6997E-8	1.79E-2
-2.4152E-1	-1.7058E-1	-1.5542E-8	1.792E-2
-2.6479E-1	-1.3348E-1	-4.3398E-8	1.794E-2
-2.8225E-1	-9.3258E-2	-6.4168E-8	1.796E-2
-2.935E-1	-5.0845E-2	-7.7434E-8	1.7979E-2
-2.9828E-1	-7.2085E-3	-8.4558E-8	1.7999E-2
-2.9649E-1	3.6654E-2	-8.8071E-8	1.8019E-2
-2.8817E-1	7.9745E-2	-9.0717E-8	1.8039E-2
-2.7353E-1	1.2109E-1	-9.4348E-8	1.8059E-2
-2.5292E-1	1.5975E-1	-9.8991E-8	1.8079E-2
-2.2683E-1	1.9487E-1	-1.0248E-7	1.8098E-2
-1.9586E-1	2.2567E-1	-1.0092E-7	1.8118E-2
-1.6074E-1	2.5147E-1	-8.9872E-8	1.8138E-2
-1.2228E-1	2.7174E-1	-6.5918E-8	1.8158E-2
-8.1358E-2	2.8605E-1	-2.7877E-8	1.8178E-2
-3.8909E-2	2.9412E-1	2.267E-8	1.8198E-2
4.1093E-3	2.9582E-1	8.1678E-8	1.8218E-2
4.6736E-2	2.9116E-1	1.4353E-7	1.8237E-2
8.8027E-2	2.8032E-1	2.0227E-7	1.8257E-2
1.2708E-1	2.6359E-1	2.5293E-7	1.8277E-2
1.6306E-1	2.4141E-1	2.9247E-7	1.8297E-2
1.952E-1	2.1432E-1	3.2011E-7	1.8316E-2
2.2284E-1	1.8299E-1	3.3672E-7	1.8336E-2
2.4544E-1	1.4817E-1	3.4382E-7	1.8356E-2
2.6256E-1	1.1066E-1	3.4284E-7	1.8376E-2
2.7391E-1	7.1326E-2	3.3493E-7	1.8396E-2
2.7933E-1	3.1065E-2	3.211E-7	1.8415E-2
2.7879E-1	-9.229E-3	3.0225E-7	1.8435E-2
2.7242E-1	-4.8674E-2	2.788E-7	1.8455E-2
2.6045E-1	-8.6423E-2	2.507E-7	1.8475E-2
2.4326E-1	-1.2168E-1	2.181E-7	1.8495E-2
2.2131E-1	-1.5374E-1	1.8254E-7	1.8514E-2
1.9519E-1	-1.8195E-1	1.4765E-7	1.8534E-2
1.6555E-1	-2.0579E-1	1.1856E-7	1.8554E-2
1.3311E-1	-2.2483E-1	9.996E-8	1.8574E-2
9.8655E-2	-2.3878E-1	9.3991E-8	1.8594E-2
6.297E-2	-2.4745E-1	9.9292E-8	1.8614E-2
2.6864E-2	-2.508E-1	1.1187E-7	1.8633E-2
-8.8683E-3	-2.4887E-1	1.2738E-7	1.8653E-2
-4.3463E-2	-2.4187E-1	1.4337E-7	1.8673E-2
-7.6202E-2	-2.3008E-1	1.603E-7	1.8693E-2
-1.0643E-1	-2.139E-1	1.805E-7	1.8713E-2
-1.3357E-1	-1.9381E-1	2.0572E-7	1.8732E-2
-1.5712E-1	-1.7037E-1	2.3451E-7	1.8752E-2
-1.767E-1	-1.442E-1	2.6106E-7	1.8772E-2
-1.9201E-1	-1.1594E-1	2.7634E-7	1.8792E-2
-2.0288E-1	-8.6301E-2	2.7148E-7	1.8812E-2
-2.0921E-1	-5.5958E-2	2.4162E-7	1.8831E-2
-2.1105E-1	-2.5599E-2	1.8846E-7	1.8851E-2
-2.0852E-1	4.1185E-3	1.2009E-7	1.8871E-2
-2.0186E-1	3.2574E-2	4.8517E-8	1.8891E-2
-1.9138E-1	5.9201E-2	-1.3909E-8	1.8911E-2
-1.7746E-1	8.35E-2	-5.7325E-8	1.8931E-2
-1.6056E-1	1.0504E-1	-7.5892E-8	1.895E-2
-1.4118E-1	1.2348E-1	-6.81E-8	1.897E-2
-1.1986E-1	1.3857E-1	-3.6479E-8	1.899E-2
-9.7164E-2	1.5013E-1	1.2983E-8	1.901E-2
-7.365E-2	1.5808E-1	7.1775E-8	1.903E-2
-4.9876E-2	1.6245E-1	1.3036E-7	1.905E-2
-2.638E-2	1.6332E-1	1.8011E-7	1.907E-2
-3.6616E-3	1.6087E-1	2.1506E-7	1.9089E-2
1.7821E-2	1.5534E-1	2.3274E-7	1.9109E-2
3.7667E-2	1.4704E-1	2.338E-7	1.9129E-2
5.5534E-2	1.3632E-1	2.207E-7	1.9149E-2
7.1152E-2	1.2357E-1	1.9636E-7	1.9168E-2
8.4317E-2	1.0921E-1	1.6328E-7	1.9188E-2
9.4902E-2	9.3674E-2	1.2349E-7	1.9208E-2
1.0285E-1	7.7394E-2	7.8912E-8	1.9228E-2
1.0817E-1	6.0796E-2	3.1897E-8	1.9248E-2
1.1095E-1	4.4283E-2	-1.426E-8	1.9268E-2
1.1133E-1	2.8228E-2	-5.5019E-8	1.9287E-2
1.0948E-1	1.2966E-2	-8.4667E-8	1.9307E-2
1.0566E-1	-1.2148E-3	-9.6949E-8	1.9327E-2
1.0012E-1	-1.4076E-2	-8.6319E-8	1.9347E-2
9.3165E-2	-2.5435E-2	-4.9577E-8	1.9367E-2
8.51E-2	-3.5165E-2	1.267E-8	1.9387E-2
7.624E-2	-4.3194E-2	9.5379E-8	1.9407E-2
6.6893E-2	-4.9508E-2	1.8973E-7	1.9427E-2
5.7353E-2	-5.4142E-2	2.8487E-7	1.9446E-2
4.7895E-2	-5.718E-2	3.7015E-7	1.9466E-2
3.876E-2	-5.8745E-2	4.3688E-7	1.9486E-2
3.016E-2	-5.8996E-2	4.7945E-7	1.9506E-2
2.2263E-2	-5.8118E-2	4.9571E-7	1.9526E-2
1.5197E-2	-5.6315E-2	4.871E-7	1.9545E-2
9.0459E-3	-5.3803E-2	4.5833E-7	1.9565E-2
3.8504E-3	-5.0796E-2	4.1665E-7	1.9585E-2
-3.9096E-4	-4.7507E-2	3.7043E-7	1.9605E-2
-3.7188E-3	-4.4133E-2	3.2727E-7	1.9624E-2
-6.2088E-3	-4.0853E-2	2.9227E-7	1.9644E-2
-7.9665E-3	-3.782E-2	2.6689E-7	1.9664E-2
-9.1211E-3	-3.5157E-2	2.4896E-7	1.9684E-2
-9.8196E-3	-3.2953E-2	2.3383E-7	1.9704E-2
-1.0219E-2	-3.1265E-2	2.164E-7	1.9724E-2
-1.048E-2	-3.0112E-2	1.931E-7	1.9743E-2
-1.0759E-2	-2.9478E-2	1.6319E-7	1.9763E-2
-1.1203E-2	-2.9313E-2	1.2881E-7	1.9783E-2
-1.1941E-2	-2.954E-2	9.407E-8	1.9803E-2
-1.3082E-2	-3.0054E-2	6.3511E-8	1.9823E-2
-1.4707E-2	-3.073E-2	4.0661E-8	1.9843E-2
-1.6867E-2	-3.1426E-2	2.7223E-8	1.9863E-2
-1.9584E-2	-3.1994E-2	2.3173E-8	1.9882E-2
-2.2843E-2	-3.2282E-2	2.7599E-8	1.9902E-2
