jMRUI Data Textfile

Filename: lip_c.txt

PointsInDataset: 32768     
DatasetsInFile: 1         
SamplingInterval: 3.333E-2  
ZeroOrderPhase: 0E0       
BeginTime: 0E0       
TransmitterFrequency: 2.9722E8  
MagneticField: 0E0       
TypeOfNucleus: 1E0       
NameOfPatient: 
DateOfExperiment: 
Spectrometer: 
AdditionalInfo: 


Signal and FFT
sig(real)	sig(imag)	fft(real)	fft(imag)
Signal 1 out of 1 in file
4.1E-1	0E0	1.0823E-7	1.0117E-2
4.0799E-1	-4.0366E-2	1.3356E-7	1.0137E-2
4.0196E-1	-8.0325E-2	1.5135E-7	1.0156E-2
3.92E-1	-1.1948E-1	1.6081E-7	1.0176E-2
3.7818E-1	-1.5743E-1	1.6357E-7	1.0196E-2
3.6067E-1	-1.9381E-1	1.6221E-7	1.0215E-2
3.3964E-1	-2.2824E-1	1.5822E-7	1.0235E-2
3.1529E-1	-2.6038E-1	1.5062E-7	1.0255E-2
2.8789E-1	-2.8992E-1	1.36E-7	1.0274E-2
2.5772E-1	-3.1656E-1	1.1037E-7	1.0294E-2
2.2507E-1	-3.4004E-1	7.1946E-8	1.0314E-2
1.9029E-1	-3.6013E-1	2.3512E-8	1.0333E-2
1.5373E-1	-3.7664E-1	-2.7329E-8	1.0353E-2
1.1576E-1	-3.8941E-1	-7.0258E-8	1.0373E-2
7.6759E-2	-3.9832E-1	-9.5803E-8	1.0393E-2
3.713E-2	-4.033E-1	-9.8562E-8	1.0412E-2
-2.7306E-3	-4.0432E-1	-7.8593E-8	1.0432E-2
-4.2422E-2	-4.0136E-1	-4.0701E-8	1.0452E-2
-8.1547E-2	-3.9449E-1	7.65E-9	1.0472E-2
-1.1972E-1	-3.8377E-1	5.8638E-8	1.0491E-2
-1.5655E-1	-3.6935E-1	1.0585E-7	1.0511E-2
-1.9169E-1	-3.5137E-1	1.4521E-7	1.0531E-2
-2.2478E-1	-3.3003E-1	1.7502E-7	1.055E-2
-2.5551E-1	-3.0558E-1	1.9526E-7	1.057E-2
-2.8359E-1	-2.7825E-1	2.0633E-7	1.059E-2
-3.0874E-1	-2.4836E-1	2.0796E-7	1.0609E-2
-3.3072E-1	-2.162E-1	1.9901E-7	1.0629E-2
-3.4935E-1	-1.8211E-1	1.7855E-7	1.0649E-2
-3.6445E-1	-1.4646E-1	1.4764E-7	1.0668E-2
-3.7589E-1	-1.096E-1	1.1087E-7	1.0688E-2
-3.8358E-1	-7.1905E-2	7.6182E-8	1.0708E-2
-3.8748E-1	-3.3767E-2	5.2676E-8	1.0728E-2
-3.8756E-1	4.4334E-3	4.7081E-8	1.0747E-2
-3.8387E-1	4.2313E-2	6.0639E-8	1.0767E-2
-3.7645E-1	7.9496E-2	8.8108E-8	1.0787E-2
-3.6543E-1	1.1562E-1	1.1962E-7	1.0807E-2
-3.5092E-1	1.5032E-1	1.4455E-7	1.0826E-2
-3.3312E-1	1.8328E-1	1.5551E-7	1.0846E-2
-3.1222E-1	2.1417E-1	1.5054E-7	1.0866E-2
-2.8847E-1	2.4271E-1	1.3286E-7	1.0885E-2
-2.6211E-1	2.6862E-1	1.086E-7	1.0905E-2
-2.3345E-1	2.9169E-1	8.4086E-8	1.0925E-2
-2.0279E-1	3.117E-1	6.3542E-8	1.0944E-2
-1.7046E-1	3.2849E-1	4.8074E-8	1.0964E-2
-1.3679E-1	3.4192E-1	3.5883E-8	1.0984E-2
-1.0213E-1	3.5189E-1	2.3575E-8	1.1004E-2
-6.6847E-2	3.5834E-1	8.0913E-9	1.1023E-2
-3.129E-2	3.6125E-1	-1.1507E-8	1.1043E-2
4.1814E-3	3.6062E-1	-3.3296E-8	1.1063E-2
3.9214E-2	3.565E-1	-5.3234E-8	1.1082E-2
7.3466E-2	3.4897E-1	-6.6973E-8	1.1102E-2
1.066E-1	3.3815E-1	-7.1633E-8	1.1122E-2
1.3831E-1	3.2419E-1	-6.6536E-8	1.1142E-2
1.6829E-1	3.0726E-1	-5.2743E-8	1.1161E-2
1.9627E-1	2.8758E-1	-3.205E-8	1.1181E-2
2.22E-1	2.6537E-1	-6.2556E-9	1.1201E-2
2.4524E-1	2.4088E-1	2.2968E-8	1.1221E-2
2.6581E-1	2.144E-1	5.3828E-8	1.124E-2
2.8354E-1	1.8621E-1	8.4212E-8	1.126E-2
2.9828E-1	1.5662E-1	1.1176E-7	1.128E-2
3.0994E-1	1.2594E-1	1.3419E-7	1.1299E-2
3.1846E-1	9.4488E-2	1.4976E-7	1.1319E-2
3.2378E-1	6.2594E-2	1.5762E-7	1.1339E-2
3.2591E-1	3.0578E-2	1.5804E-7	1.1358E-2
3.2488E-1	-1.2418E-3	1.5227E-7	1.1378E-2
3.2075E-1	-3.2552E-2	1.4195E-7	1.1398E-2
3.1361E-1	-6.3052E-2	1.2825E-7	1.1418E-2
3.0358E-1	-9.2454E-2	1.1111E-7	1.1437E-2
2.9081E-1	-1.2048E-1	8.9025E-8	1.1457E-2
2.7547E-1	-1.4689E-1	5.984E-8	1.1477E-2
2.5777E-1	-1.7144E-1	2.2309E-8	1.1496E-2
2.3791E-1	-1.9393E-1	-2.2216E-8	1.1516E-2
2.1614E-1	-2.1417E-1	-6.8979E-8	1.1536E-2
1.927E-1	-2.32E-1	-1.1046E-7	1.1556E-2
1.6786E-1	-2.473E-1	-1.383E-7	1.1575E-2
1.4189E-1	-2.5996E-1	-1.4566E-7	1.1595E-2
1.1507E-1	-2.6991E-1	-1.2926E-7	1.1615E-2
8.7671E-2	-2.7711E-1	-9.0379E-8	1.1635E-2
5.9985E-2	-2.8154E-1	-3.4622E-8	1.1654E-2
3.2286E-2	-2.8322E-1	2.9442E-8	1.1674E-2
4.8468E-3	-2.8219E-1	9.2367E-8	1.1694E-2
-2.2069E-2	-2.7852E-1	1.4589E-7	1.1714E-2
-4.8209E-2	-2.723E-1	1.8422E-7	1.1733E-2
-7.3336E-2	-2.6365E-1	2.0413E-7	1.1753E-2
-9.7225E-2	-2.5271E-1	2.0437E-7	1.1772E-2
-1.1967E-1	-2.3965E-1	1.8513E-7	1.1792E-2
-1.4049E-1	-2.2463E-1	1.4814E-7	1.1812E-2
-1.5952E-1	-2.0785E-1	9.7426E-8	1.1832E-2
-1.7662E-1	-1.8953E-1	3.9682E-8	1.1851E-2
-1.9167E-1	-1.6987E-1	-1.6215E-8	1.1871E-2
-2.0457E-1	-1.4911E-1	-6.0898E-8	1.1891E-2
-2.1526E-1	-1.2747E-1	-8.6813E-8	1.1911E-2
-2.2369E-1	-1.0518E-1	-9.0306E-8	1.193E-2
-2.2983E-1	-8.2484E-2	-7.2655E-8	1.195E-2
-2.337E-1	-5.9608E-2	-3.9605E-8	1.197E-2
-2.3531E-1	-3.678E-2	5.6012E-10	1.199E-2
-2.3472E-1	-1.4217E-2	3.9741E-8	1.2009E-2
-2.3199E-1	7.8686E-3	7.2396E-8	1.2029E-2
-2.2722E-1	2.9279E-2	9.6494E-8	1.2049E-2
-2.2051E-1	4.9829E-2	1.1268E-7	1.2068E-2
-2.1198E-1	6.9346E-2	1.2236E-7	1.2088E-2
-2.0177E-1	8.7675E-2	1.2586E-7	1.2108E-2
-1.9004E-1	1.0468E-1	1.2193E-7	1.2127E-2
-1.7694E-1	1.2024E-1	1.0862E-7	1.2147E-2
-1.6264E-1	1.3425E-1	8.506E-8	1.2167E-2
-1.4732E-1	1.4663E-1	5.302E-8	1.2187E-2
-1.3116E-1	1.5732E-1	1.7309E-8	1.2206E-2
-1.1434E-1	1.6627E-1	-1.5185E-8	1.2226E-2
-9.7048E-2	1.7347E-1	-3.7431E-8	1.2246E-2
-7.9458E-2	1.789E-1	-4.4253E-8	1.2266E-2
-6.1748E-2	1.8259E-1	-3.3528E-8	1.2285E-2
-4.4089E-2	1.8455E-1	-6.2535E-9	1.2305E-2
-2.6644E-2	1.8484E-1	3.4258E-8	1.2325E-2
-9.5689E-3	1.8352E-1	8.3472E-8	1.2345E-2
6.9931E-3	1.8066E-1	1.3656E-7	1.2364E-2
2.2909E-2	1.7636E-1	1.8904E-7	1.2384E-2
3.8057E-2	1.7071E-1	2.3721E-7	1.2404E-2
5.2331E-2	1.6382E-1	2.7844E-7	1.2423E-2
6.5637E-2	1.558E-1	3.1123E-7	1.2443E-2
7.7895E-2	1.4678E-1	3.3495E-7	1.2463E-2
8.9041E-2	1.3689E-1	3.4919E-7	1.2483E-2
9.9023E-2	1.2625E-1	3.5308E-7	1.2502E-2
1.0781E-1	1.1499E-1	3.4493E-7	1.2522E-2
1.1537E-1	1.0324E-1	3.226E-7	1.2542E-2
1.217E-1	9.114E-2	2.8442E-7	1.2561E-2
1.268E-1	7.88E-2	2.3029E-7	1.2581E-2
1.307E-1	6.6345E-2	1.6246E-7	1.2601E-2
1.3341E-1	5.389E-2	8.576E-8	1.262E-2
1.3498E-1	4.1542E-2	6.9715E-9	1.264E-2
1.3545E-1	2.9401E-2	-6.6377E-8	1.266E-2
1.3488E-1	1.7558E-2	-1.2754E-7	1.268E-2
1.3334E-1	6.0974E-3	-1.7184E-7	1.2699E-2
1.3088E-1	-4.9081E-3	-1.9729E-7	1.2719E-2
1.2759E-1	-1.5394E-2	-2.046E-7	1.2739E-2
1.2353E-1	-2.5307E-2	-1.9663E-7	1.2759E-2
1.1879E-1	-3.4602E-2	-1.7761E-7	1.2778E-2
1.1345E-1	-4.3243E-2	-1.5203E-7	1.2798E-2
1.0758E-1	-5.1206E-2	-1.234E-7	1.2818E-2
1.0126E-1	-5.8473E-2	-9.331E-8	1.2838E-2
9.4577E-2	-6.5036E-2	-6.1326E-8	1.2858E-2
8.7592E-2	-7.0893E-2	-2.6053E-8	1.2877E-2
8.0379E-2	-7.6052E-2	1.3041E-8	1.2897E-2
7.3002E-2	-8.0524E-2	5.398E-8	1.2917E-2
6.5521E-2	-8.4329E-2	9.1802E-8	1.2936E-2
5.7992E-2	-8.7488E-2	1.1962E-7	1.2956E-2
5.0464E-2	-9.0028E-2	1.3084E-7	1.2976E-2
4.2982E-2	-9.198E-2	1.2155E-7	1.2996E-2
3.5583E-2	-9.3375E-2	9.204E-8	1.3015E-2
2.83E-2	-9.4246E-2	4.6831E-8	1.3035E-2
2.116E-2	-9.4627E-2	-6.5389E-9	1.3055E-2
1.4185E-2	-9.4551E-2	-5.9361E-8	1.3074E-2
7.3928E-3	-9.405E-2	-1.0336E-7	1.3094E-2
7.9502E-4	-9.3157E-2	-1.317E-7	1.3114E-2
-5.5994E-3	-9.19E-2	-1.396E-7	1.3134E-2
-1.1785E-2	-9.0307E-2	-1.248E-7	1.3154E-2
-1.776E-2	-8.84E-2	-8.8167E-8	1.3173E-2
-2.3524E-2	-8.6201E-2	-3.3964E-8	1.3193E-2
-2.9077E-2	-8.3729E-2	3.0702E-8	1.3213E-2
-3.4423E-2	-8.0997E-2	9.7403E-8	1.3233E-2
-3.9564E-2	-7.8017E-2	1.5854E-7	1.3252E-2
-4.4502E-2	-7.4799E-2	2.0916E-7	1.3272E-2
-4.9239E-2	-7.1347E-2	2.4763E-7	1.3292E-2
-5.3774E-2	-6.7666E-2	2.7478E-7	1.3311E-2
-5.8107E-2	-6.3757E-2	2.921E-7	1.3331E-2
-6.2232E-2	-5.9619E-2	2.9999E-7	1.3351E-2
-6.6145E-2	-5.5251E-2	2.9715E-7	1.337E-2
-6.9835E-2	-5.0652E-2	2.813E-7	1.339E-2
-7.3291E-2	-4.5818E-2	2.5087E-7	1.341E-2
-7.6498E-2	-4.0749E-2	2.0693E-7	1.343E-2
-7.9438E-2	-3.5444E-2	1.5411E-7	1.3449E-2
-8.2092E-2	-2.9905E-2	1.0027E-7	1.3469E-2
-8.4435E-2	-2.4135E-2	5.4712E-8	1.3489E-2
-8.6443E-2	-1.8141E-2	2.5746E-8	1.3509E-2
-8.8089E-2	-1.1932E-2	1.8335E-8	1.3528E-2
-8.9345E-2	-5.5221E-3	3.2701E-8	1.3548E-2
-9.0182E-2	1.0714E-3	6.4257E-8	1.3568E-2
-9.057E-2	7.8267E-3	1.0499E-7	1.3588E-2
-9.048E-2	1.4718E-2	1.4598E-7	1.3607E-2
-8.9885E-2	2.1713E-2	1.8025E-7	1.3627E-2
-8.8759E-2	2.8777E-2	2.0478E-7	1.3647E-2
-8.7078E-2	3.587E-2	2.2081E-7	1.3667E-2
-8.4821E-2	4.2946E-2	2.3212E-7	1.3686E-2
-8.1972E-2	4.9958E-2	2.4225E-7	1.3706E-2
-7.8519E-2	5.6852E-2	2.5192E-7	1.3726E-2
-7.4455E-2	6.3573E-2	2.58E-7	1.3745E-2
-6.9778E-2	7.0062E-2	2.5448E-7	1.3765E-2
-6.4494E-2	7.6258E-2	2.3473E-7	1.3785E-2
-5.8613E-2	8.21E-2	1.9431E-7	1.3804E-2
-5.2154E-2	8.7524E-2	1.3289E-7	1.3824E-2
-4.5143E-2	9.2467E-2	5.4878E-8	1.3844E-2
-3.7612E-2	9.6869E-2	-3.1376E-8	1.3864E-2
-2.9601E-2	1.0067E-1	-1.1518E-7	1.3883E-2
-2.1158E-2	1.0381E-1	-1.8551E-7	1.3903E-2
-1.2337E-2	1.0624E-1	-2.3315E-7	1.3923E-2
-3.1995E-3	1.0791E-1	-2.5287E-7	1.3943E-2
6.1874E-3	1.0878E-1	-2.4521E-7	1.3963E-2
1.575E-2	1.0881E-1	-2.169E-7	1.3982E-2
2.541E-2	1.0796E-1	-1.7911E-7	1.4002E-2
3.5085E-2	1.0623E-1	-1.4365E-7	1.4022E-2
4.4687E-2	1.0359E-1	-1.1879E-7	1.4042E-2
5.4128E-2	1.0004E-1	-1.0658E-7	1.4062E-2
6.3316E-2	9.5592E-2	-1.0323E-7	1.4081E-2
7.216E-2	9.025E-2	-1.0199E-7	1.4101E-2
8.0568E-2	8.4043E-2	-9.6937E-8	1.4121E-2
8.8451E-2	7.7004E-2	-8.5637E-8	1.4141E-2
9.572E-2	6.9178E-2	-6.9705E-8	1.416E-2
1.0229E-1	6.0619E-2	-5.3401E-8	1.418E-2
1.0809E-1	5.1389E-2	-4.1219E-8	1.42E-2
1.1304E-1	4.1561E-2	-3.5674E-8	1.422E-2
1.1707E-1	3.1215E-2	-3.6254E-8	1.4239E-2
1.2014E-1	2.0439E-2	-3.9875E-8	1.4259E-2
1.2218E-1	9.3278E-3	-4.2514E-8	1.4279E-2
1.2316E-1	-2.0182E-3	-4.1103E-8	1.4299E-2
1.2305E-1	-1.3494E-2	-3.4674E-8	1.4318E-2
1.2183E-1	-2.4989E-2	-2.4197E-8	1.4338E-2
1.195E-1	-3.6394E-2	-1.134E-8	1.4358E-2
1.1605E-1	-4.7594E-2	2.9587E-9	1.4378E-2
1.1152E-1	-5.8477E-2	1.911E-8	1.4397E-2
1.0591E-1	-6.8931E-2	3.835E-8	1.4417E-2
9.9289E-2	-7.8847E-2	6.1532E-8	1.4437E-2
9.1691E-2	-8.8121E-2	8.8134E-8	1.4457E-2
8.3186E-2	-9.6652E-2	1.1605E-7	1.4476E-2
7.3846E-2	-1.0435E-1	1.4217E-7	1.4496E-2
6.3757E-2	-1.1112E-1	1.6327E-7	1.4516E-2
5.3013E-2	-1.169E-1	1.7697E-7	1.4536E-2
4.1713E-2	-1.216E-1	1.8239E-7	1.4555E-2
2.9969E-2	-1.2519E-1	1.8029E-7	1.4575E-2
1.7893E-2	-1.2761E-1	1.7264E-7	1.4595E-2
5.6075E-3	-1.2883E-1	1.6157E-7	1.4615E-2
-6.7661E-3	-1.2883E-1	1.4856E-7	1.4634E-2
-1.9102E-2	-1.2761E-1	1.3447E-7	1.4654E-2
-3.1274E-2	-1.2516E-1	1.2031E-7	1.4674E-2
-4.3159E-2	-1.2152E-1	1.0824E-7	1.4694E-2
-5.4632E-2	-1.167E-1	1.0164E-7	1.4713E-2
