jMRUI Data Textfile

Filename: mm4.txt

PointsInDataset: 32768     
DatasetsInFile: 1         
SamplingInterval: 3.333E-2  
ZeroOrderPhase: 0E0       
BeginTime: 0E0       
TransmitterFrequency: 2.9722E8  
MagneticField: 0E0       
TypeOfNucleus: 1E0       
NameOfPatient: 
DateOfExperiment: 
Spectrometer: 
AdditionalInfo: 


Signal and FFT
sig(real)	sig(imag)	fft(real)	fft(imag)
Signal 1 out of 1 in file
1.1E-1	0E0	3.0585E-8	2.8268E-3
1.0942E-1	-1.1277E-2	5.3352E-8	2.8321E-3
1.0769E-1	-2.2436E-2	8.7875E-8	2.8374E-3
1.0482E-1	-3.3358E-2	1.2858E-7	2.8427E-3
1.0085E-1	-4.3928E-2	1.684E-7	2.848E-3
9.5812E-2	-5.4036E-2	2.0055E-7	2.8533E-3
8.9768E-2	-6.3574E-2	2.1999E-7	2.8585E-3
8.2777E-2	-7.2441E-2	2.2432E-7	2.8637E-3
7.4913E-2	-8.0546E-2	2.1369E-7	2.869E-3
6.6261E-2	-8.7801E-2	1.9022E-7	2.8742E-3
5.691E-2	-9.4131E-2	1.5716E-7	2.8795E-3
4.6959E-2	-9.9469E-2	1.1842E-7	2.8848E-3
3.6514E-2	-1.0376E-1	7.8199E-8	2.8901E-3
2.5684E-2	-1.0696E-1	4.0772E-8	2.8953E-3
1.4583E-2	-1.0902E-1	1.0042E-8	2.9007E-3
3.3293E-3	-1.0994E-1	-1.1082E-8	2.906E-3
-7.9598E-3	-1.0971E-1	-2.126E-8	2.9113E-3
-1.9165E-2	-1.0831E-1	-2.0899E-8	2.9166E-3
-3.0168E-2	-1.0577E-1	-1.1835E-8	2.9219E-3
-4.0853E-2	-1.0212E-1	3.331E-9	2.9272E-3
-5.1107E-2	-9.7396E-2	2.1847E-8	2.9325E-3
-6.0822E-2	-9.1643E-2	4.1105E-8	2.9378E-3
-6.9896E-2	-8.4923E-2	5.8625E-8	2.9431E-3
-7.8234E-2	-7.7309E-2	7.1951E-8	2.9484E-3
-8.5746E-2	-6.8881E-2	7.8741E-8	2.9536E-3
-9.2355E-2	-5.9726E-2	7.7121E-8	2.9589E-3
-9.7991E-2	-4.9943E-2	6.6219E-8	2.9642E-3
-1.0259E-1	-3.9633E-2	4.6651E-8	2.9694E-3
-1.0611E-1	-2.8906E-2	2.0733E-8	2.9747E-3
-1.0852E-1	-1.7874E-2	-7.7132E-9	2.98E-3
-1.0978E-1	-6.6546E-3	-3.3985E-8	2.9853E-3
-1.0988E-1	4.6349E-3	-5.3442E-8	2.9906E-3
-1.0882E-1	1.5875E-2	-6.2556E-8	2.9959E-3
-1.0662E-1	2.6948E-2	-5.9812E-8	3.0012E-3
-1.033E-1	3.7736E-2	-4.6187E-8	3.0066E-3
-9.8881E-2	4.8127E-2	-2.4977E-8	3.0119E-3
-9.3424E-2	5.801E-2	-9.3737E-10	3.0172E-3
-8.6983E-2	6.7281E-2	2.1081E-8	3.0224E-3
-7.9626E-2	7.5843E-2	3.7503E-8	3.0277E-3
-7.143E-2	8.3605E-2	4.6842E-8	3.033E-3
-6.2481E-2	9.0486E-2	4.9622E-8	3.0383E-3
-5.2874E-2	9.6413E-2	4.7489E-8	3.0435E-3
-4.271E-2	1.0132E-1	4.2092E-8	3.0488E-3
-3.2097E-2	1.0517E-1	3.4326E-8	3.0541E-3
-2.1146E-2	1.079E-1	2.4266E-8	3.0594E-3
-9.9718E-3	1.095E-1	1.1651E-8	3.0646E-3
1.3066E-3	1.0994E-1	-3.5001E-9	3.0699E-3
1.2571E-2	1.0923E-1	-2.0524E-8	3.0752E-3
2.3702E-2	1.0736E-1	-3.8139E-8	3.0805E-3
3.4583E-2	1.0436E-1	-5.4774E-8	3.0858E-3
4.5099E-2	1.0026E-1	-6.9032E-8	3.0911E-3
5.514E-2	9.511E-2	-8.0113E-8	3.0964E-3
6.4598E-2	8.8954E-2	-8.7998E-8	3.1017E-3
7.3376E-2	8.1861E-2	-9.3311E-8	3.107E-3
8.138E-2	7.3905E-2	-9.6872E-8	3.1123E-3
8.8526E-2	6.5171E-2	-9.9196E-8	3.1176E-3
9.4738E-2	5.575E-2	-1.0025E-7	3.1229E-3
9.9952E-2	4.5743E-2	-9.9584E-8	3.1282E-3
1.0411E-1	3.5254E-2	-9.6752E-8	3.1335E-3
1.0718E-1	2.4394E-2	-9.168E-8	3.1388E-3
1.0911E-1	1.3277E-2	-8.4819E-8	3.1441E-3
1.0989E-1	2.021E-3	-7.7015E-8	3.1494E-3
1.0952E-1	-9.2557E-3	-6.9233E-8	3.1547E-3
1.0799E-1	-2.0434E-2	-6.2238E-8	3.16E-3
1.0532E-1	-3.1397E-2	-5.6339E-8	3.1653E-3
1.0155E-1	-4.2028E-2	-5.1267E-8	3.1706E-3
9.6699E-2	-5.2215E-2	-4.6234E-8	3.1759E-3
9.0833E-2	-6.1852E-2	-4.0173E-8	3.1812E-3
8.4011E-2	-7.0837E-2	-3.2056E-8	3.1865E-3
7.6304E-2	-7.9074E-2	-2.1135E-8	3.1918E-3
6.7793E-2	-8.6477E-2	-7.0502E-9	3.1971E-3
5.8568E-2	-9.2969E-2	1.0153E-8	3.2024E-3
4.8727E-2	-9.8481E-2	3.0008E-8	3.2077E-3
3.8372E-2	-1.0295E-1	5.1579E-8	3.213E-3
2.7614E-2	-1.0634E-1	7.3446E-8	3.2183E-3
1.6566E-2	-1.0861E-1	9.3823E-8	3.2235E-3
5.3439E-3	-1.0973E-1	1.1082E-7	3.2288E-3
-5.9339E-3	-1.097E-1	1.2277E-7	3.2341E-3
-1.7148E-2	-1.0851E-1	1.2849E-7	3.2393E-3
-2.8181E-2	-1.0617E-1	1.2739E-7	3.2446E-3
-3.8917E-2	-1.0272E-1	1.1954E-7	3.2499E-3
-4.9241E-2	-9.8188E-2	1.0575E-7	3.2551E-3
-5.9046E-2	-9.2619E-2	8.7641E-8	3.2604E-3
-6.8228E-2	-8.6074E-2	6.7719E-8	3.2657E-3
-7.669E-2	-7.8623E-2	4.912E-8	3.271E-3
-8.4343E-2	-7.0344E-2	3.4942E-8	3.2763E-3
-9.1107E-2	-6.1324E-2	2.7245E-8	3.2816E-3
-9.691E-2	-5.1658E-2	2.6148E-8	3.2869E-3
-1.0169E-1	-4.1449E-2	2.9576E-8	3.2922E-3
-1.054E-1	-3.0804E-2	3.401E-8	3.2975E-3
-1.08E-1	-1.9835E-2	3.6015E-8	3.3028E-3
-1.0946E-1	-8.658E-3	3.3839E-8	3.3081E-3
-1.0977E-1	2.6094E-3	2.8168E-8	3.3133E-3
-1.0892E-1	1.3849E-2	2.1585E-8	3.3186E-3
-1.0692E-1	2.4941E-2	1.6981E-8	3.3239E-3
-1.0379E-1	3.5769E-2	1.5823E-8	3.3292E-3
-9.9575E-2	4.622E-2	1.7292E-8	3.3345E-3
-9.4308E-2	5.6183E-2	1.877E-8	3.3398E-3
-8.8048E-2	6.5552E-2	1.7369E-8	3.3451E-3
-8.086E-2	7.423E-2	1.1565E-8	3.3504E-3
-7.282E-2	8.2126E-2	1.9612E-9	3.3556E-3
-6.4014E-2	8.9155E-2	-9.2358E-9	3.3609E-3
-5.4534E-2	9.5243E-2	-1.9682E-8	3.3662E-3
-4.4481E-2	1.0033E-1	-2.8405E-8	3.3715E-3
-3.3959E-2	1.0435E-1	-3.6484E-8	3.3768E-3
-2.308E-2	1.0728E-1	-4.6551E-8	3.3821E-3
-1.196E-2	1.0908E-1	-6.1412E-8	3.3874E-3
-7.137E-4	1.0972E-1	-8.2534E-8	3.3927E-3
1.0539E-2	1.0921E-1	-1.0913E-7	3.398E-3
2.1679E-2	1.0755E-1	-1.3818E-7	3.4033E-3
3.2589E-2	1.0476E-1	-1.6535E-7	3.4086E-3
4.3156E-2	1.0086E-1	-1.8614E-7	3.4139E-3
5.3266E-2	9.59E-2	-1.9707E-7	3.4192E-3
6.2814E-2	8.9929E-2	-1.964E-7	3.4246E-3
7.1699E-2	8.3012E-2	-1.8441E-7	3.4299E-3
7.9828E-2	7.522E-2	-1.6324E-7	3.4352E-3
8.7114E-2	6.6636E-2	-1.3635E-7	3.4405E-3
9.3482E-2	5.7351E-2	-1.0778E-7	3.4458E-3
9.8864E-2	4.7463E-2	-8.1326E-8	3.4511E-3
1.032E-1	3.7075E-2	-5.9894E-8	3.4564E-3
1.0646E-1	2.6298E-2	-4.512E-8	3.4617E-3
1.0859E-1	1.5244E-2	-3.7266E-8	3.467E-3
1.0957E-1	4.0315E-3	-3.5315E-8	3.4723E-3
1.094E-1	-7.2226E-3	-3.7259E-8	3.4775E-3
1.0808E-1	-1.8399E-2	-4.0605E-8	3.4828E-3
1.0562E-1	-2.9381E-2	-4.3052E-8	3.4881E-3
1.0204E-1	-4.0052E-2	-4.3197E-8	3.4934E-3
9.7392E-2	-5.03E-2	-4.0944E-8	3.4987E-3
9.1717E-2	-6.0016E-2	-3.7407E-8	3.504E-3
8.5076E-2	-6.9099E-2	-3.4303E-8	3.5093E-3
7.754E-2	-7.7452E-2	-3.3097E-8	3.5146E-3
6.9187E-2	-8.4989E-2	-3.4321E-8	3.5199E-3
6.0105E-2	-9.1629E-2	-3.7348E-8	3.5252E-3
5.0392E-2	-9.7303E-2	-4.0715E-8	3.5305E-3
4.0148E-2	-1.0195E-1	-4.2807E-8	3.5358E-3
2.9483E-2	-1.0552E-1	-4.2627E-8	3.5411E-3
1.8508E-2	-1.0798E-1	-4.0306E-8	3.5464E-3
7.3399E-3	-1.0931E-1	-3.7161E-8	3.5517E-3
-3.9047E-3	-1.0948E-1	-3.5224E-8	3.557E-3
-1.5107E-2	-1.0849E-1	-3.6381E-8	3.5623E-3
-2.6148E-2	-1.0636E-1	-4.1405E-8	3.5676E-3
-3.6913E-2	-1.0312E-1	-4.9306E-8	3.5729E-3
-4.7287E-2	-9.8783E-2	-5.7312E-8	3.5782E-3
-5.7162E-2	-9.3409E-2	-6.1664E-8	3.5835E-3
-6.6433E-2	-8.7051E-2	-5.8998E-8	3.5888E-3
-7.5003E-2	-7.9777E-2	-4.7791E-8	3.5941E-3
-8.2781E-2	-7.1662E-2	-2.9182E-8	3.5994E-3
-8.9686E-2	-6.2794E-2	-6.6969E-9	3.6047E-3
-9.5645E-2	-5.3265E-2	1.5078E-8	3.61E-3
-1.006E-1	-4.3176E-2	3.227E-8	3.6153E-3
-1.0448E-1	-3.2633E-2	4.3077E-8	3.6206E-3
-1.0727E-1	-2.1748E-2	4.8087E-8	3.6259E-3
-1.0893E-1	-1.0635E-2	4.9477E-8	3.6311E-3
-1.0944E-1	5.8874E-4	4.9662E-8	3.6364E-3
-1.0879E-1	1.1805E-2	5.0176E-8	3.6417E-3
-1.07E-1	2.2895E-2	5.1383E-8	3.647E-3
-1.0409E-1	3.3742E-2	5.3022E-8	3.6523E-3
-1.0007E-1	4.4232E-2	5.5059E-8	3.6576E-3
-9.5003E-2	5.4255E-2	5.8163E-8	3.6629E-3
-8.8934E-2	6.3704E-2	6.3465E-8	3.6682E-3
-8.1929E-2	7.2481E-2	7.178E-8	3.6735E-3
-7.4061E-2	8.0493E-2	8.2858E-8	3.6788E-3
-6.5414E-2	8.7656E-2	9.5179E-8	3.6841E-3
-5.6079E-2	9.3894E-2	1.0644E-7	3.6894E-3
-4.6154E-2	9.9141E-2	1.1446E-7	3.6947E-3
-3.5744E-2	1.0334E-1	1.1797E-7	3.6999E-3
-2.4959E-2	1.0646E-1	1.1693E-7	3.7052E-3
-1.3913E-2	1.0845E-1	1.1224E-7	3.7105E-3
-2.7212E-3	1.0929E-1	1.0507E-7	3.7158E-3
8.4973E-3	1.0899E-1	9.6261E-8	3.7211E-3
1.9625E-2	1.0753E-1	8.6024E-8	3.7263E-3
3.0543E-2	1.0495E-1	7.4176E-8	3.7316E-3
4.1139E-2	1.0126E-1	6.0557E-8	3.7369E-3
5.1299E-2	9.6497E-2	4.537E-8	3.7422E-3
6.0917E-2	9.0723E-2	2.9245E-8	3.7475E-3
6.9892E-2	8.3993E-2	1.3093E-8	3.7528E-3
7.8129E-2	7.6379E-2	-2.0342E-9	3.7581E-3
8.5541E-2	6.7962E-2	-1.4923E-8	3.7634E-3
9.2051E-2	5.8829E-2	-2.4082E-8	3.7687E-3
9.7589E-2	4.9078E-2	-2.7761E-8	3.7741E-3
1.021E-1	3.8812E-2	-2.4314E-8	3.7794E-3
1.0553E-1	2.8138E-2	-1.2878E-8	3.7847E-3
1.0785E-1	1.7169E-2	5.9068E-9	3.79E-3
1.0903E-1	6.0211E-3	2.9507E-8	3.7953E-3
1.0907E-1	-5.1886E-3	5.3711E-8	3.8006E-3
1.0795E-1	-1.6342E-2	7.345E-8	3.8059E-3
1.057E-1	-2.7321E-2	8.4008E-8	3.8111E-3
1.0233E-1	-3.8011E-2	8.2254E-8	3.8164E-3
9.789E-2	-4.8298E-2	6.751E-8	3.8217E-3
9.2415E-2	-5.8074E-2	4.1824E-8	3.827E-3
8.5968E-2	-6.7237E-2	9.583E-9	3.8323E-3
7.8615E-2	-7.569E-2	-2.342E-8	3.8376E-3
7.0435E-2	-8.3344E-2	-5.1242E-8	3.8429E-3
6.1514E-2	-9.0118E-2	-6.912E-8	3.8482E-3
5.1946E-2	-9.5942E-2	-7.4613E-8	3.8535E-3
4.1833E-2	-1.0075E-1	-6.8235E-8	3.8588E-3
3.1281E-2	-1.045E-1	-5.3329E-8	3.8642E-3
2.04E-2	-1.0715E-1	-3.5067E-8	3.8695E-3
9.307E-3	-1.0867E-1	-1.8823E-8	3.8748E-3
-1.8826E-3	-1.0904E-1	-8.4912E-9	3.8801E-3
-1.305E-2	-1.0826E-1	-5.4323E-9	3.8854E-3
-2.4079E-2	-1.0634E-1	-8.4355E-9	3.8906E-3
-3.4851E-2	-1.0331E-1	-1.46E-8	3.8959E-3
-4.5255E-2	-9.9181E-2	-2.0617E-8	3.9012E-3
-5.518E-2	-9.401E-2	-2.3854E-8	3.9066E-3
-6.4521E-2	-8.785E-2	-2.2936E-8	3.9119E-3
-7.3181E-2	-8.0765E-2	-1.7811E-8	3.9172E-3
-8.1068E-2	-7.283E-2	-9.5072E-9	3.9225E-3
-8.81E-2	-6.4129E-2	2.7444E-10	3.9278E-3
-9.4202E-2	-5.4755E-2	9.6736E-9	3.9331E-3
-9.931E-2	-4.4804E-2	1.7234E-8	3.9384E-3
-1.0337E-1	-3.4384E-2	2.2363E-8	3.9437E-3
-1.0634E-1	-2.3603E-2	2.5463E-8	3.949E-3
-1.0819E-1	-1.2575E-2	2.7624E-8	3.9543E-3
-1.089E-1	-1.4167E-3	2.9975E-8	3.9596E-3
-1.0846E-1	9.7543E-3	3.3017E-8	3.9649E-3
-1.0688E-1	2.082E-2	3.6301E-8	3.9701E-3
-1.0417E-1	3.1665E-2	3.8605E-8	3.9754E-3
-1.0037E-1	4.2174E-2	3.8543E-8	3.9807E-3
-9.5505E-2	5.2237E-2	3.5282E-8	3.986E-3
-8.9638E-2	6.1747E-2	2.9039E-8	3.9913E-3
-8.2827E-2	7.0604E-2	2.1118E-8	3.9966E-3
-7.5145E-2	7.8716E-2	1.3456E-8	4.0019E-3
-6.6673E-2	8.5997E-2	7.8802E-9	4.0072E-3
-5.7499E-2	9.237E-2	5.4148E-9	4.0125E-3
-4.7722E-2	9.7769E-2	5.9876E-9	4.0178E-3
-3.7443E-2	1.0214E-1	8.6543E-9	4.0231E-3
-2.6772E-2	1.0543E-1	1.216E-8	4.0284E-3
-1.5821E-2	1.0761E-1	1.5439E-8	4.0337E-3
-4.7054E-3	1.0865E-1	1.7741E-8	4.039E-3
6.4576E-3	1.0855E-1	1.8345E-8	4.0443E-3
1.755E-2	1.073E-1	1.6193E-8	4.0496E-3
2.8456E-2	1.0493E-1	9.8345E-9	4.0549E-3
