jMRUI Data Textfile

Filename: GPC_GlycerolMoiety.txt

PointsInDataset: 32768     
DatasetsInFile: 1         
SamplingInterval: 3.3333E-2 
ZeroOrderPhase: 0E0       
BeginTime: 0E0       
TransmitterFrequency: 2.9722E8  
MagneticField: 0E0       
TypeOfNucleus: 0E0       
NameOfPatient: 
DateOfExperiment: 
Spectrometer: 
AdditionalInfo: 


Signal and FFT
sig(real)	sig(imag)	fft(real)	fft(imag)
Signal 1 out of 1 in file
5E0	-2.1856E-7	3.2379E-4	7.0085E-2
4.9906E0	-2.8008E-1	3.2399E-4	7.0326E-2
4.9653E0	-5.5907E-1	3.2461E-4	7.0566E-2
4.9239E0	-8.3603E-1	3.2536E-4	7.0806E-2
4.8669E0	-1.11E0	3.2592E-4	7.1045E-2
4.7942E0	-1.3802E0	3.2572E-4	7.1284E-2
4.7063E0	-1.6455E0	3.2534E-4	7.1524E-2
4.6033E0	-1.9053E0	3.2527E-4	7.1764E-2
4.4858E0	-2.1584E0	3.2507E-4	7.2004E-2
4.354E0	-2.4043E0	3.2511E-4	7.2244E-2
4.2085E0	-2.6419E0	3.2534E-4	7.2484E-2
4.0498E0	-2.8706E0	3.2576E-4	7.2723E-2
3.8784E0	-3.0896E0	3.2553E-4	7.2963E-2
3.695E0	-3.2982E0	3.2514E-4	7.3203E-2
3.5002E0	-3.4957E0	3.2512E-4	7.3442E-2
3.2946E0	-3.6815E0	3.2464E-4	7.3682E-2
3.079E0	-3.855E0	3.244E-4	7.3922E-2
2.8542E0	-4.0155E0	3.2472E-4	7.4162E-2
2.6209E0	-4.1628E0	3.2467E-4	7.4402E-2
2.3799E0	-4.2962E0	3.2429E-4	7.4642E-2
2.1321E0	-4.4154E0	3.236E-4	7.4881E-2
1.8784E0	-4.52E0	3.2265E-4	7.5122E-2
1.6195E0	-4.6097E0	3.2283E-4	7.5363E-2
1.3564E0	-4.6843E0	3.2375E-4	7.5604E-2
1.0899E0	-4.7437E0	3.2442E-4	7.5844E-2
8.2111E-1	-4.7875E0	3.2496E-4	7.6083E-2
5.5078E-1	-4.8159E0	3.2516E-4	7.6323E-2
2.7986E-1	-4.8287E0	3.2514E-4	7.6563E-2
9.2763E-3	-4.8259E0	3.2527E-4	7.6802E-2
-2.6008E-1	-4.8077E0	3.2514E-4	7.7042E-2
-5.273E-1	-4.7742E0	3.2496E-4	7.7282E-2
-7.915E-1	-4.7256E0	3.2487E-4	7.7522E-2
-1.0518E0	-4.6621E0	3.246E-4	7.7762E-2
-1.3074E0	-4.584E0	3.249E-4	7.8002E-2
-1.5574E0	-4.4917E0	3.2554E-4	7.8242E-2
-1.801E0	-4.3854E0	3.255E-4	7.8481E-2
-2.0374E0	-4.2658E0	3.2498E-4	7.8721E-2
-2.2659E0	-4.1332E0	3.2481E-4	7.8961E-2
-2.4858E0	-3.9882E0	3.2525E-4	7.9202E-2
-2.6964E0	-3.8314E0	3.2587E-4	7.9441E-2
-2.897E0	-3.6633E0	3.2591E-4	7.968E-2
-3.087E0	-3.4846E0	3.2499E-4	7.9919E-2
-3.2659E0	-3.2959E0	3.2381E-4	8.0159E-2
-3.4331E0	-3.098E0	3.232E-4	8.04E-2
-3.5882E0	-2.8916E0	3.2335E-4	8.0641E-2
-3.7306E0	-2.6775E0	3.2416E-4	8.0882E-2
-3.8602E0	-2.4563E0	3.2486E-4	8.1121E-2
-3.9764E0	-2.229E0	3.2499E-4	8.1361E-2
-4.079E0	-1.9963E0	3.2487E-4	8.16E-2
-4.1678E0	-1.7591E0	3.2435E-4	8.184E-2
-4.2425E0	-1.5181E0	3.2386E-4	8.208E-2
-4.3031E0	-1.2743E0	3.237E-4	8.2321E-2
-4.3495E0	-1.0284E0	3.2394E-4	8.2561E-2
-4.3816E0	-7.8142E-1	3.2442E-4	8.2801E-2
-4.3995E0	-5.3405E-1	3.2508E-4	8.3041E-2
-4.4031E0	-2.8717E-1	3.2561E-4	8.3281E-2
-4.3927E0	-4.162E-2	3.2537E-4	8.352E-2
-4.3684E0	2.018E-1	3.2476E-4	8.376E-2
-4.3304E0	4.4228E-1	3.2461E-4	8.4E-2
-4.279E0	6.7905E-1	3.2495E-4	8.424E-2
-4.2144E0	9.1134E-1	3.2523E-4	8.4479E-2
-4.1371E0	1.1384E0	3.249E-4	8.4719E-2
-4.0474E0	1.3596E0	3.2406E-4	8.4959E-2
-3.9457E0	1.5741E0	3.2365E-4	8.5199E-2
-3.8326E0	1.7814E0	3.2365E-4	8.5439E-2
-3.7084E0	1.9808E0	3.2351E-4	8.5679E-2
-3.5739E0	2.1717E0	3.2358E-4	8.592E-2
-3.4294E0	2.3536E0	3.2425E-4	8.616E-2
-3.2757E0	2.526E0	3.2457E-4	8.6399E-2
-3.1134E0	2.6884E0	3.2389E-4	8.6638E-2
-2.943E0	2.8403E0	3.2267E-4	8.6878E-2
-2.7654E0	2.9814E0	3.2207E-4	8.7119E-2
-2.5811E0	3.1114E0	3.2218E-4	8.736E-2
-2.3909E0	3.2299E0	3.2247E-4	8.7601E-2
-2.1955E0	3.3367E0	3.2294E-4	8.7841E-2
-1.9956E0	3.4315E0	3.235E-4	8.8081E-2
-1.7919E0	3.5143E0	3.2392E-4	8.8321E-2
-1.5853E0	3.5848E0	3.2374E-4	8.856E-2
-1.3763E0	3.6431E0	3.2332E-4	8.8801E-2
-1.1659E0	3.689E0	3.2358E-4	8.9041E-2
-9.5466E-1	3.7227E0	3.2434E-4	8.9281E-2
-7.4335E-1	3.7441E0	3.2452E-4	8.952E-2
-5.3269E-1	3.7533E0	3.2437E-4	8.976E-2
-3.2339E-1	3.7506E0	3.2361E-4	9E-2
-1.1613E-1	3.7361E0	3.2298E-4	9.024E-2
8.8409E-2	3.71E0	3.2292E-4	9.0481E-2
2.8958E-1	3.6726E0	3.2313E-4	9.0721E-2
4.8674E-1	3.6241E0	3.2343E-4	9.0962E-2
6.793E-1	3.5651E0	3.2387E-4	9.1202E-2
8.6667E-1	3.4957E0	3.2429E-4	9.1442E-2
1.0483E0	3.4164E0	3.2433E-4	9.1681E-2
1.2237E0	3.3277E0	3.2408E-4	9.1921E-2
1.3923E0	3.23E0	3.2407E-4	9.2162E-2
1.5537E0	3.1239E0	3.2456E-4	9.2402E-2
1.7074E0	3.0097E0	3.2501E-4	9.2642E-2
1.8531E0	2.888E0	3.2535E-4	9.2882E-2
1.9905E0	2.7595E0	3.2597E-4	9.3122E-2
2.1191E0	2.6246E0	3.2611E-4	9.3361E-2
2.2388E0	2.4839E0	3.2562E-4	9.36E-2
2.3493E0	2.3381E0	3.2538E-4	9.384E-2
2.4503E0	2.1877E0	3.2545E-4	9.4081E-2
2.5418E0	2.0333E0	3.2573E-4	9.432E-2
2.6235E0	1.8756E0	3.2602E-4	9.456E-2
2.6955E0	1.7151E0	3.2589E-4	9.4799E-2
2.7576E0	1.5525E0	3.2502E-4	9.5039E-2
2.8099E0	1.3883E0	3.2388E-4	9.5279E-2
2.8524E0	1.2232E0	3.2294E-4	9.5519E-2
2.8851E0	1.0578E0	3.2301E-4	9.576E-2
2.9082E0	8.9254E-1	3.235E-4	9.6001E-2
2.9218E0	7.281E-1	3.2368E-4	9.6241E-2
2.926E0	5.6501E-1	3.2373E-4	9.6481E-2
2.9211E0	4.038E-1	3.232E-4	9.6721E-2
2.9072E0	2.4499E-1	3.2276E-4	9.6961E-2
2.8847E0	8.9056E-2	3.2348E-4	9.7202E-2
2.8539E0	-6.3515E-2	3.2397E-4	9.7442E-2
2.815E0	-2.1228E-1	3.2359E-4	9.7682E-2
2.7683E0	-3.5681E-1	3.2369E-4	9.7922E-2
2.7143E0	-4.9672E-1	3.242E-4	9.8162E-2
2.6534E0	-6.3162E-1	3.2443E-4	9.8402E-2
2.5858E0	-7.6119E-1	3.2437E-4	9.8642E-2
2.5121E0	-8.8511E-1	3.2447E-4	9.8882E-2
2.4326E0	-1.0031E0	3.2468E-4	9.9122E-2
2.3478E0	-1.1149E0	3.2461E-4	9.9362E-2
2.2582E0	-1.2203E0	3.2447E-4	9.9602E-2
2.1642E0	-1.3191E0	3.2451E-4	9.9842E-2
2.0662E0	-1.4112E0	3.2459E-4	1.0008E-1
1.9648E0	-1.4964E0	3.2432E-4	1.0032E-1
1.8604E0	-1.5746E0	3.239E-4	1.0056E-1
1.7534E0	-1.6458E0	3.2349E-4	1.008E-1
1.6444E0	-1.71E0	3.2333E-4	1.0104E-1
1.5337E0	-1.7671E0	3.2325E-4	1.0128E-1
1.4219E0	-1.8171E0	3.2321E-4	1.0152E-1
1.3093E0	-1.8602E0	3.2368E-4	1.0176E-1
1.1964E0	-1.8963E0	3.241E-4	1.02E-1
1.0837E0	-1.9257E0	3.2408E-4	1.0224E-1
9.7152E-1	-1.9484E0	3.2351E-4	1.0248E-1
8.6024E-1	-1.9647E0	3.2311E-4	1.0272E-1
7.5026E-1	-1.9746E0	3.2331E-4	1.0296E-1
6.4193E-1	-1.9784E0	3.238E-4	1.032E-1
5.3559E-1	-1.9763E0	3.2412E-4	1.0344E-1
4.3155E-1	-1.9685E0	3.2425E-4	1.0369E-1
3.3011E-1	-1.9554E0	3.2431E-4	1.0393E-1
2.3154E-1	-1.9372E0	3.2428E-4	1.0417E-1
1.361E-1	-1.9141E0	3.2464E-4	1.0441E-1
4.3997E-2	-1.8865E0	3.2538E-4	1.0465E-1
-4.4553E-2	-1.8546E0	3.2591E-4	1.0489E-1
-1.2938E-1	-1.8189E0	3.2624E-4	1.0513E-1
-2.1032E-1	-1.7795E0	3.2604E-4	1.0536E-1
-2.8725E-1	-1.7369E0	3.2547E-4	1.056E-1
-3.6007E-1	-1.6914E0	3.2518E-4	1.0584E-1
-4.287E-1	-1.6433E0	3.2517E-4	1.0608E-1
-4.9308E-1	-1.5928E0	3.2501E-4	1.0632E-1
-5.5318E-1	-1.5405E0	3.249E-4	1.0657E-1
-6.0899E-1	-1.4865E0	3.2515E-4	1.0681E-1
-6.6053E-1	-1.4311E0	3.2531E-4	1.0705E-1
-7.0783E-1	-1.3748E0	3.2504E-4	1.0728E-1
-7.5095E-1	-1.3178E0	3.2437E-4	1.0753E-1
-7.8997E-1	-1.2603E0	3.2398E-4	1.0777E-1
-8.2499E-1	-1.2027E0	3.2431E-4	1.0801E-1
-8.5612E-1	-1.1453E0	3.2469E-4	1.0825E-1
-8.8348E-1	-1.0882E0	3.2468E-4	1.0849E-1
-9.0724E-1	-1.0317E0	3.2415E-4	1.0873E-1
-9.2755E-1	-9.7605E-1	3.2346E-4	1.0897E-1
-9.4459E-1	-9.2143E-1	3.2323E-4	1.0921E-1
-9.5854E-1	-8.6802E-1	3.2382E-4	1.0945E-1
-9.696E-1	-8.16E-1	3.2474E-4	1.0969E-1
-9.7797E-1	-7.6552E-1	3.2519E-4	1.0993E-1
-9.8386E-1	-7.167E-1	3.2557E-4	1.1017E-1
-9.875E-1	-6.6965E-1	3.2582E-4	1.1041E-1
-9.8911E-1	-6.2446E-1	3.2553E-4	1.1065E-1
-9.889E-1	-5.8121E-1	3.2531E-4	1.1089E-1
-9.871E-1	-5.3994E-1	3.2562E-4	1.1113E-1
-9.8394E-1	-5.0069E-1	3.2535E-4	1.1137E-1
-9.7964E-1	-4.6347E-1	3.2437E-4	1.1161E-1
-9.7442E-1	-4.2827E-1	3.2406E-4	1.1185E-1
-9.6848E-1	-3.9507E-1	3.2433E-4	1.1209E-1
-9.6205E-1	-3.6383E-1	3.2457E-4	1.1233E-1
-9.5531E-1	-3.3449E-1	3.2463E-4	1.1257E-1
-9.4846E-1	-3.0697E-1	3.2469E-4	1.1281E-1
-9.4167E-1	-2.8118E-1	3.2482E-4	1.1305E-1
-9.3512E-1	-2.5702E-1	3.2495E-4	1.1329E-1
-9.2897E-1	-2.3437E-1	3.2543E-4	1.1353E-1
-9.2335E-1	-2.131E-1	3.2544E-4	1.1377E-1
-9.1839E-1	-1.9306E-1	3.2478E-4	1.1401E-1
-9.1422E-1	-1.7411E-1	3.2445E-4	1.1425E-1
-9.1092E-1	-1.5609E-1	3.25E-4	1.1449E-1
-9.0858E-1	-1.3883E-1	3.2581E-4	1.1473E-1
-9.0727E-1	-1.2216E-1	3.2615E-4	1.1497E-1
-9.0704E-1	-1.059E-1	3.2603E-4	1.1521E-1
-9.0792E-1	-8.9864E-2	3.259E-4	1.1545E-1
-9.0991E-1	-7.3877E-2	3.2595E-4	1.1569E-1
-9.1303E-1	-5.7754E-2	3.2599E-4	1.1593E-1
-9.1724E-1	-4.1316E-2	3.2617E-4	1.1617E-1
-9.2252E-1	-2.4382E-2	3.2638E-4	1.1641E-1
-9.288E-1	-6.7784E-3	3.263E-4	1.1665E-1
-9.3602E-1	1.1664E-2	3.2603E-4	1.1689E-1
-9.4408E-1	3.1107E-2	3.2608E-4	1.1713E-1
-9.5289E-1	5.1706E-2	3.2579E-4	1.1737E-1
-9.6232E-1	7.3606E-2	3.2566E-4	1.1761E-1
-9.7225E-1	9.6942E-2	3.2614E-4	1.1786E-1
-9.8253E-1	1.2184E-1	3.2648E-4	1.181E-1
-9.93E-1	1.484E-1	3.265E-4	1.1834E-1
-1.0035E0	1.7673E-1	3.265E-4	1.1858E-1
-1.0138E0	2.0691E-1	3.263E-4	1.1882E-1
-1.0238E0	2.3901E-1	3.2609E-4	1.1906E-1
-1.0333E0	2.7307E-1	3.264E-4	1.193E-1
-1.042E0	3.0914E-1	3.2684E-4	1.1954E-1
-1.0498E0	3.4722E-1	3.2712E-4	1.1978E-1
-1.0564E0	3.8732E-1	3.2706E-4	1.2002E-1
-1.0617E0	4.2942E-1	3.2706E-4	1.2026E-1
-1.0653E0	4.7348E-1	3.2732E-4	1.205E-1
-1.0672E0	5.1944E-1	3.279E-4	1.2074E-1
-1.067E0	5.6724E-1	3.2836E-4	1.2098E-1
-1.0647E0	6.1677E-1	3.282E-4	1.2122E-1
-1.0599E0	6.6793E-1	3.2768E-4	1.2146E-1
-1.0524E0	7.2058E-1	3.274E-4	1.217E-1
-1.0422E0	7.7459E-1	3.2774E-4	1.2194E-1
-1.029E0	8.2978E-1	3.2815E-4	1.2218E-1
-1.0126E0	8.8598E-1	3.2819E-4	1.2242E-1
-9.929E-1	9.4299E-1	3.2823E-4	1.2266E-1
-9.6972E-1	1.0006E0	3.2859E-4	1.229E-1
-9.4295E-1	1.0586E0	3.2881E-4	1.2314E-1
-9.1246E-1	1.1167E0	3.2867E-4	1.2338E-1
-8.7815E-1	1.1747E0	3.2841E-4	1.2362E-1
-8.3994E-1	1.2323E0	3.28E-4	1.2386E-1
-7.9777E-1	1.2893E0	3.2788E-4	1.241E-1
-7.5159E-1	1.3453E0	3.2809E-4	1.2434E-1
-7.0138E-1	1.4002E0	3.2824E-4	1.2458E-1
-6.4713E-1	1.4535E0	3.2766E-4	1.2482E-1
-5.8886E-1	1.505E0	3.2729E-4	1.2506E-1
-5.266E-1	1.5545E0	3.276E-4	1.253E-1
-4.6042E-1	1.6015E0	3.2791E-4	1.2554E-1
-3.904E-1	1.6458E0	3.2844E-4	1.2578E-1
-3.1663E-1	1.6872E0	3.2875E-4	1.2602E-1
-2.3926E-1	1.7252E0	3.2843E-4	1.2626E-1
-1.5841E-1	1.7597E0	3.2824E-4	1.265E-1
-7.4275E-2	1.7903E0	3.2836E-4	1.2674E-1
1.297E-2	1.8168E0	3.2819E-4	1.2698E-1
1.0311E-1	1.8389E0	3.2812E-4	1.2722E-1
1.9591E-1	1.8563E0	3.2818E-4	1.2746E-1
2.9112E-1	1.8689E0	3.2841E-4	1.277E-1
3.8846E-1	1.8764E0	3.2846E-4	1.2794E-1
4.8766E-1	1.8785E0	3.2814E-4	1.2818E-1
