jMRUI Data Textfile

Filename: MM_meas.txt

PointsInDataset: 32768
DatasetsInFile: 1
SamplingInterval: 0.033333333333
ZeroOrderPhase: 0E0  
BeginTime: 0E0 
TransmitterFrequency: 1.2323E8
MagneticField: 0E0
TypeOfNucleus: 0E0
NameOfPatient:
DateOfExperiment:
Spectrometer:
AdditionalInfo:


Signal and FFT
sig(real)	sig(imag)	fft(real)	fft(imag)
Signal 1 out of 1 in file
6.1494E+03	-5.3637E+01	3.0452E+03	3.5819E+02
6.0828E+03	-1.5090E+03	3.0452E+03	3.5849E+02
5.6734E+03	-2.7809E+03	3.0452E+03	3.5879E+02
4.9767E+03	-3.8597E+03	3.0452E+03	3.5909E+02
4.0480E+03	-4.7357E+03	3.0452E+03	3.5939E+02
2.9430E+03	-5.3994E+03	3.0452E+03	3.5969E+02
1.7170E+03	-5.8411E+03	3.0452E+03	3.5999E+02
4.2559E+02	-6.0513E+03	3.0452E+03	3.6029E+02
-8.7585E+02	-6.0203E+03	3.0452E+03	3.6059E+02
-2.1318E+03	-5.7385E+03	3.0452E+03	3.6089E+02
-3.2868E+03	-5.1964E+03	3.0452E+03	3.6119E+02
-4.2896E+03	-4.3956E+03	3.0453E+03	3.6149E+02
-5.1061E+03	-3.3828E+03	3.0453E+03	3.6179E+02
-5.7062E+03	-2.2164E+03	3.0453E+03	3.6208E+02
-6.0600E+03	-9.5422E+02	3.0453E+03	3.6238E+02
-6.1376E+03	3.4544E+02	3.0453E+03	3.6268E+02
-5.9198E+03	1.6258E+03	3.0453E+03	3.6298E+02
-5.4305E+03	2.8350E+03	3.0453E+03	3.6328E+02
-4.7045E+03	3.9224E+03	3.0453E+03	3.6358E+02
-3.7767E+03	4.8375E+03	3.0453E+03	3.6388E+02
-2.6817E+03	5.5297E+03	3.0453E+03	3.6418E+02
-1.4588E+03	5.9576E+03	3.0453E+03	3.6448E+02
-1.6504E+02	6.1169E+03	3.0453E+03	3.6478E+02
1.1381E+03	6.0122E+03	3.0453E+03	3.6508E+02
2.3892E+03	5.6483E+03	3.0453E+03	3.6537E+02
3.5268E+03	5.0301E+03	3.0453E+03	3.6567E+02
4.4953E+03	4.1709E+03	3.0453E+03	3.6597E+02
5.2632E+03	3.1184E+03	3.0453E+03	3.6627E+02
5.8049E+03	1.9290E+03	3.0453E+03	3.6657E+02
6.0949E+03	6.5880E+02	3.0453E+03	3.6687E+02
6.1075E+03	-6.3574E+02	3.0453E+03	3.6717E+02
5.8276E+03	-1.8995E+03	3.0453E+03	3.6747E+02
5.2814E+03	-3.0817E+03	3.0453E+03	3.6777E+02
4.5057E+03	-4.1328E+03	3.0453E+03	3.6807E+02
3.5373E+03	-5.0031E+03	3.0453E+03	3.6836E+02
2.4128E+03	-5.6430E+03	3.0453E+03	3.6866E+02
1.1730E+03	-6.0125E+03	3.0453E+03	3.6896E+02
-1.2486E+02	-6.1099E+03	3.0453E+03	3.6926E+02
-1.4197E+03	-5.9432E+03	3.0453E+03	3.6956E+02
-2.6504E+03	-5.5203E+03	3.0453E+03	3.6986E+02
-3.7556E+03	-4.8492E+03	3.0453E+03	3.7016E+02
-4.6806E+03	-3.9460E+03	3.0453E+03	3.7046E+02
-5.3963E+03	-2.8599E+03	3.0453E+03	3.7076E+02
-5.8798E+03	-1.6481E+03	3.0453E+03	3.7106E+02
-6.1083E+03	-3.6793E+02	3.0453E+03	3.7136E+02
-6.0592E+03	9.2329E+02	3.0453E+03	3.7166E+02
-5.7199E+03	2.1699E+03	3.0453E+03	3.7196E+02
-5.1191E+03	3.3224E+03	3.0453E+03	3.7226E+02
-4.2958E+03	4.3333E+03	3.0453E+03	3.7256E+02
-3.2889E+03	5.1548E+03	3.0454E+03	3.7286E+02
-2.1376E+03	5.7392E+03	3.0454E+03	3.7316E+02
-8.8432E+02	6.0485E+03	3.0454E+03	3.7346E+02
4.1390E+02	6.0838E+03	3.0454E+03	3.7375E+02
1.6965E+03	5.8560E+03	3.0454E+03	3.7405E+02
2.9028E+03	5.3759E+03	3.0454E+03	3.7435E+02
3.9722E+03	4.6545E+03	3.0454E+03	3.7465E+02
4.8510E+03	3.7105E+03	3.0454E+03	3.7495E+02
5.5123E+03	2.5941E+03	3.0454E+03	3.7525E+02
5.9364E+03	1.3637E+03	3.0454E+03	3.7555E+02
6.1032E+03	7.7292E+01	3.0454E+03	3.7585E+02
5.9928E+03	-1.2068E+03	3.0454E+03	3.7615E+02
5.5955E+03	-2.4325E+03	3.0454E+03	3.7645E+02
4.9421E+03	-3.5521E+03	3.0454E+03	3.7675E+02
4.0739E+03	-4.5199E+03	3.0454E+03	3.7705E+02
3.0320E+03	-5.2902E+03	3.0454E+03	3.7735E+02
1.8574E+03	-5.8175E+03	3.0454E+03	3.7765E+02
5.9444E+02	-6.0659E+03	3.0454E+03	3.7794E+02
-7.0019E+02	-6.0393E+03	3.0454E+03	3.7824E+02
-1.9667E+03	-5.7515E+03	3.0454E+03	3.7854E+02
-3.1451E+03	-5.2160E+03	3.0454E+03	3.7884E+02
-4.1758E+03	-4.4468E+03	3.0454E+03	3.7914E+02
-5.0059E+03	-3.4650E+03	3.0454E+03	3.7944E+02
-5.6114E+03	-2.3220E+03	3.0454E+03	3.7974E+02
-5.9751E+03	-1.0768E+03	3.0454E+03	3.8004E+02
-6.0800E+03	2.1187E+02	3.0454E+03	3.8034E+02
-5.9090E+03	1.4850E+03	3.0454E+03	3.8064E+02
-5.4552E+03	2.6863E+03	3.0454E+03	3.8094E+02
-4.7516E+03	3.7697E+03	3.0454E+03	3.8124E+02
-3.8414E+03	4.6918E+03	3.0454E+03	3.8154E+02
-2.7676E+03	5.4090E+03	3.0454E+03	3.8184E+02
-1.5735E+03	5.8780E+03	3.0454E+03	3.8214E+02
-3.0473E+02	6.0652E+03	3.0454E+03	3.8244E+02
9.8243E+02	5.9772E+03	3.0454E+03	3.8274E+02
2.2291E+03	5.6305E+03	3.0454E+03	3.8304E+02
3.3764E+03	5.0417E+03	3.0454E+03	3.8334E+02
4.3654E+03	4.2273E+03	3.0454E+03	3.8364E+02
5.1447E+03	3.2110E+03	3.0454E+03	3.8394E+02
5.6928E+03	2.0450E+03	3.0454E+03	3.8424E+02
5.9955E+03	7.8883E+02	3.0454E+03	3.8454E+02
6.0386E+03	-4.9818E+02	3.0454E+03	3.8484E+02
5.8080E+03	-1.7566E+03	3.0455E+03	3.8514E+02
5.2995E+03	-2.9301E+03	3.0455E+03	3.8544E+02
4.5481E+03	-3.9743E+03	3.0455E+03	3.8574E+02
3.5990E+03	-4.8483E+03	3.0455E+03	3.8604E+02
2.4969E+03	-5.5107E+03	3.0455E+03	3.8634E+02
1.2870E+03	-5.9204E+03	3.0455E+03	3.8664E+02
1.6318E+01	-6.0463E+03	3.0455E+03	3.8694E+02
-1.2595E+03	-5.8976E+03	3.0455E+03	3.8724E+02
-2.4827E+03	-5.4936E+03	3.0455E+03	3.8754E+02
-3.5956E+03	-4.8536E+03	3.0455E+03	3.8784E+02
-4.5403E+03	-3.9968E+03	3.0455E+03	3.8814E+02
-5.2669E+03	-2.9493E+03	3.0455E+03	3.8844E+02
-5.7565E+03	-1.7641E+03	3.0455E+03	3.8874E+02
-5.9977E+03	-5.0086E+02	3.0455E+03	3.8904E+02
-5.9795E+03	7.8061E+02	3.0455E+03	3.8934E+02
-5.6906E+03	2.0206E+03	3.0455E+03	3.8964E+02
-5.1294E+03	3.1629E+03	3.0455E+03	3.8994E+02
-4.3330E+03	4.1652E+03	3.0455E+03	3.9024E+02
-3.3481E+03	4.9887E+03	3.0455E+03	3.9054E+02
-2.2214E+03	5.5947E+03	3.0455E+03	3.9084E+02
-9.9944E+02	5.9445E+03	3.0455E+03	3.9114E+02
2.6932E+02	6.0093E+03	3.0455E+03	3.9144E+02
1.5301E+03	5.8010E+03	3.0455E+03	3.9174E+02
2.7264E+03	5.3416E+03	3.0455E+03	3.9204E+02
3.8018E+03	4.6528E+03	3.0455E+03	3.9234E+02
4.6998E+03	3.7567E+03	3.0455E+03	3.9264E+02
5.3720E+03	2.6815E+03	3.0455E+03	3.9294E+02
5.8021E+03	1.4808E+03	3.0455E+03	3.9324E+02
5.9818E+03	2.1439E+02	3.0455E+03	3.9354E+02
5.9029E+03	-1.0578E+03	3.0455E+03	3.9384E+02
5.5571E+03	-2.2758E+03	3.0455E+03	3.9414E+02
4.9455E+03	-3.3838E+03	3.0455E+03	3.9444E+02
4.1070E+03	-4.3415E+03	3.0455E+03	3.9474E+02
3.0897E+03	-5.1127E+03	3.0455E+03	3.9504E+02
1.9420E+03	-5.6611E+03	3.0455E+03	3.9534E+02
7.1193E+02	-5.9505E+03	3.0455E+03	3.9564E+02
-5.5106E+02	-5.9547E+03	3.0455E+03	3.9594E+02
-1.7931E+03	-5.6881E+03	3.0455E+03	3.9624E+02
-2.9592E+03	-5.1751E+03	3.0455E+03	3.9654E+02
-3.9943E+03	-4.4403E+03	3.0455E+03	3.9684E+02
-4.8434E+03	-3.5080E+03	3.0456E+03	3.9714E+02
-5.4598E+03	-2.4087E+03	3.0456E+03	3.9744E+02
-5.8298E+03	-1.1963E+03	3.0456E+03	3.9774E+02
-5.9482E+03	6.9397E+01	3.0456E+03	3.9804E+02
-5.8095E+03	1.3285E+03	3.0456E+03	3.9834E+02
-5.4085E+03	2.5211E+03	3.0456E+03	3.9864E+02
-4.7489E+03	3.5918E+03	3.0456E+03	3.9894E+02
-3.8713E+03	4.5026E+03	3.0456E+03	3.9924E+02
-2.8251E+03	5.2197E+03	3.0456E+03	3.9954E+02
-1.6601E+03	5.7095E+03	3.0456E+03	3.9984E+02
-4.2574E+02	5.9384E+03	3.0456E+03	4.0014E+02
8.2769E+02	5.8827E+03	3.0456E+03	4.0045E+02
2.0474E+03	5.5593E+03	3.0456E+03	4.0075E+02
3.1801E+03	4.9951E+03	3.0456E+03	4.0105E+02
4.1722E+03	4.2170E+03	3.0456E+03	4.0135E+02
4.9704E+03	3.2519E+03	3.0456E+03	4.0165E+02
5.5298E+03	2.1321E+03	3.0456E+03	4.0195E+02
5.8394E+03	9.1189E+02	3.0456E+03	4.0225E+02
5.8969E+03	-3.4921E+02	3.0456E+03	4.0255E+02
5.6997E+03	-1.5916E+03	3.0456E+03	4.0285E+02
5.2455E+03	-2.7555E+03	3.0456E+03	4.0315E+02
4.5407E+03	-3.7862E+03	3.0456E+03	4.0345E+02
3.6271E+03	-4.6479E+03	3.0456E+03	4.0375E+02
2.5557E+03	-5.3095E+03	3.0456E+03	4.0405E+02
1.3772E+03	-5.7401E+03	3.0456E+03	4.0435E+02
1.4233E+02	-5.9086E+03	3.0456E+03	4.0465E+02
-1.0979E+03	-5.7940E+03	3.0456E+03	4.0495E+02
-2.2920E+03	-5.4156E+03	3.0456E+03	4.0525E+02
-3.3882E+03	-4.8025E+03	3.0456E+03	4.0555E+02
-4.3350E+03	-3.9841E+03	3.0456E+03	4.0585E+02
-5.0807E+03	-2.9895E+03	3.0456E+03	4.0615E+02
-5.5822E+03	-1.8530E+03	3.0456E+03	4.0646E+02
-5.8314E+03	-6.2875E+02	3.0456E+03	4.0676E+02
-5.8286E+03	6.2397E+02	3.0456E+03	4.0706E+02
-5.5744E+03	1.8460E+03	3.0456E+03	4.0736E+02
-5.0691E+03	2.9781E+03	3.0456E+03	4.0766E+02
-4.3218E+03	3.9662E+03	3.0456E+03	4.0796E+02
-3.3756E+03	4.7769E+03	3.0456E+03	4.0826E+02
-2.2825E+03	5.3819E+03	3.0456E+03	4.0856E+02
-1.0943E+03	5.7528E+03	3.0456E+03	4.0887E+02
1.3728E+02	5.8613E+03	3.0456E+03	4.0917E+02
1.3607E+03	5.6891E+03	3.0456E+03	4.0947E+02
2.5259E+03	5.2576E+03	3.0456E+03	4.0977E+02
3.5830E+03	4.5984E+03	3.0456E+03	4.1007E+02
4.4822E+03	3.7428E+03	3.0456E+03	4.1037E+02
5.1738E+03	2.7222E+03	3.0457E+03	4.1067E+02
5.6168E+03	1.5727E+03	3.0457E+03	4.1098E+02
5.8057E+03	3.4827E+02	3.0457E+03	4.1128E+02
5.7436E+03	-8.9239E+02	3.0457E+03	4.1158E+02
5.4340E+03	-2.0907E+03	3.0457E+03	4.1188E+02
4.8800E+03	-3.1880E+03	3.0457E+03	4.1218E+02
4.0932E+03	-4.1312E+03	3.0457E+03	4.1248E+02
3.1179E+03	-4.8893E+03	3.0457E+03	4.1278E+02
2.0069E+03	-5.4366E+03	3.0457E+03	4.1308E+02
8.1279E+02	-5.7477E+03	3.0457E+03	4.1338E+02
-4.1176E+02	-5.7969E+03	3.0457E+03	4.1368E+02
-1.6149E+03	-5.5686E+03	3.0457E+03	4.1398E+02
-2.7480E+03	-5.0863E+03	3.0457E+03	4.1428E+02
-3.7634E+03	-4.3837E+03	3.0457E+03	4.1459E+02
-4.6131E+03	-3.4941E+03	3.0457E+03	4.1489E+02
-5.2495E+03	-2.4512E+03	3.0457E+03	4.1519E+02
-5.6337E+03	-1.2924E+03	3.0457E+03	4.1549E+02
-5.7627E+03	-7.1604E+01	3.0457E+03	4.1579E+02
-5.6427E+03	1.1534E+03	3.0457E+03	4.1609E+02
-5.2796E+03	2.3247E+03	3.0457E+03	4.1639E+02
-4.6795E+03	3.3845E+03	3.0457E+03	4.1669E+02
-3.8563E+03	4.2807E+03	3.0457E+03	4.1699E+02
-2.8554E+03	4.9848E+03	3.0457E+03	4.1729E+02
-1.7301E+03	5.4739E+03	3.0457E+03	4.1759E+02
-5.3390E+02	5.7253E+03	3.0457E+03	4.1789E+02
6.8002E+02	5.7161E+03	3.0457E+03	4.1819E+02
1.8596E+03	5.4333E+03	3.0457E+03	4.1849E+02
2.9578E+03	4.9027E+03	3.0457E+03	4.1879E+02
3.9290E+03	4.1596E+03	3.0457E+03	4.1910E+02
4.7276E+03	3.2395E+03	3.0457E+03	4.1940E+02
5.3078E+03	2.1778E+03	3.0457E+03	4.1970E+02
5.6330E+03	1.0135E+03	3.0457E+03	4.2000E+02
5.7030E+03	-2.0008E+02	3.0457E+03	4.2030E+02
5.5264E+03	-1.4060E+03	3.0457E+03	4.2060E+02
5.1119E+03	-2.5472E+03	3.0457E+03	4.2090E+02
4.4684E+03	-3.5669E+03	3.0457E+03	4.2120E+02
3.6120E+03	-4.4143E+03	3.0457E+03	4.2151E+02
2.5891E+03	-5.0631E+03	3.0457E+03	4.2181E+02
1.4534E+03	-5.4936E+03	3.0457E+03	4.2211E+02
