jMRUI Data Textfile

Filename: AMLEA.txt

PointsInDataset: 32768     
DatasetsInFile: 1         
SamplingInterval: 3.3333E-2 
ZeroOrderPhase: 0E0       
BeginTime: 0E0       
TransmitterFrequency: 2.9722E8  
MagneticField: 6.9809E0  
TypeOfNucleus: 0E0       
NameOfPatient: 
DateOfExperiment: 
Spectrometer: 
AdditionalInfo: 
SignalNames: 5ALA;


Signal and FFT
sig(real)	sig(imag)	fft(real)	fft(imag)
Signal 1 out of 1 in file
2.9053E1	-4.5255E-6	2.7783E-3	7.5826E-1
2.8866E1	-3.0087E0	2.7691E-3	7.5963E-1
2.8321E1	-5.9704E0	2.7525E-3	7.6103E-1
2.7427E1	-8.8404E0	2.7554E-3	7.6243E-1
2.6199E1	-1.1575E1	2.7554E-3	7.6382E-1
2.4656E1	-1.4134E1	2.7435E-3	7.6521E-1
2.2824E1	-1.6479E1	2.7335E-3	7.6662E-1
2.0733E1	-1.8575E1	2.7371E-3	7.6802E-1
1.8418E1	-2.0392E1	2.7342E-3	7.6941E-1
1.5915E1	-2.1905E1	2.7245E-3	7.7081E-1
1.3266E1	-2.3093E1	2.7239E-3	7.7222E-1
1.0514E1	-2.3942E1	2.735E-3	7.7362E-1
7.7025E0	-2.4442E1	2.7341E-3	7.7501E-1
4.8769E0	-2.459E1	2.7288E-3	7.7641E-1
2.0823E0	-2.4389E1	2.7344E-3	7.7781E-1
-6.3704E-1	-2.3845E1	2.7356E-3	7.792E-1
-3.2383E0	-2.2975E1	2.727E-3	7.8059E-1
-5.681E0	-2.1796E1	2.7228E-3	7.8199E-1
-7.9276E0	-2.0333E1	2.7104E-3	7.834E-1
-9.9442E0	-1.8615E1	2.7182E-3	7.8481E-1
-1.1701E1	-1.6675E1	2.7365E-3	7.8621E-1
-1.3172E1	-1.455E1	2.738E-3	7.876E-1
-1.4338E1	-1.2278E1	2.7408E-3	7.8899E-1
-1.5184E1	-9.9025E0	2.7461E-3	7.9039E-1
-1.57E1	-7.4654E0	2.7424E-3	7.9177E-1
-1.5884E1	-5.0107E0	2.7375E-3	7.9318E-1
-1.5736E1	-2.5822E0	2.7495E-3	7.9457E-1
-1.5265E1	-2.2279E-1	2.7577E-3	7.9595E-1
-1.4485E1	2.0261E0	2.741E-3	7.9733E-1
-1.3413E1	4.1252E0	2.7324E-3	7.9873E-1
-1.2073E1	6.0381E0	2.7301E-3	8.0013E-1
-1.0494E1	7.7321E0	2.7182E-3	8.0151E-1
-8.7074E0	9.1783E0	2.6883E-3	8.0292E-1
-6.7481E0	1.0352E1	2.6867E-3	8.0434E-1
-4.6545E0	1.1235E1	2.6963E-3	8.0575E-1
-2.4668E0	1.1812E1	2.7031E-3	8.0714E-1
-2.2657E-1	1.2074E1	2.6902E-3	8.0853E-1
2.024E0	1.2018E1	2.691E-3	8.0995E-1
4.2426E0	1.1647E1	2.6992E-3	8.1134E-1
6.3879E0	1.0968E1	2.6932E-3	8.1274E-1
8.4201E0	9.995E0	2.6979E-3	8.1415E-1
1.0301E1	8.7451E0	2.7054E-3	8.1553E-1
1.1997E1	7.2417E0	2.6951E-3	8.1692E-1
1.3474E1	5.5118E0	2.6891E-3	8.1833E-1
1.4707E1	3.5866E0	2.6833E-3	8.1973E-1
1.5672E1	1.5003E0	2.6889E-3	8.2114E-1
1.635E1	-7.1036E-1	2.6968E-3	8.2253E-1
1.6728E1	-3.0064E0	2.6928E-3	8.2392E-1
1.6797E1	-5.3478E0	2.6862E-3	8.2531E-1
1.6555E1	-7.6937E0	2.6688E-3	8.2672E-1
1.6004E1	-1.0003E1	2.6808E-3	8.2814E-1
1.5152E1	-1.2237E1	2.682E-3	8.2953E-1
1.4012E1	-1.4357E1	2.6783E-3	8.3093E-1
1.26E1	-1.6325E1	2.6733E-3	8.3233E-1
1.094E1	-1.811E1	2.6695E-3	8.3374E-1
9.0567E0	-1.968E1	2.6859E-3	8.3515E-1
6.981E0	-2.1009E1	2.7029E-3	8.3655E-1
4.7454E0	-2.2075E1	2.7155E-3	8.3793E-1
2.3853E0	-2.286E1	2.7054E-3	8.3931E-1
-6.2201E-2	-2.3351E1	2.6821E-3	8.4071E-1
-2.5586E0	-2.3541E1	2.6851E-3	8.4212E-1
-5.065E0	-2.3425E1	2.6859E-3	8.4353E-1
-7.5426E0	-2.3007E1	2.6913E-3	8.4493E-1
-9.9533E0	-2.2293E1	2.7075E-3	8.4633E-1
-1.2261E1	-2.1295E1	2.7069E-3	8.4771E-1
-1.443E1	-2.0031E1	2.6958E-3	8.4911E-1
-1.6429E1	-1.852E1	2.6915E-3	8.5052E-1
-1.823E1	-1.6788E1	2.7045E-3	8.5192E-1
-1.9806E1	-1.4862E1	2.704E-3	8.5331E-1
-2.1138E1	-1.2773E1	2.7059E-3	8.5471E-1
-2.2207E1	-1.0554E1	2.7094E-3	8.5611E-1
-2.3001E1	-8.2407E0	2.713E-3	8.575E-1
-2.3513E1	-5.868E0	2.7097E-3	8.589E-1
-2.3739E1	-3.4728E0	2.7027E-3	8.603E-1
-2.3681E1	-1.0911E0	2.7095E-3	8.617E-1
-2.3346E1	1.2416E0	2.7198E-3	8.6309E-1
-2.2744E1	3.4912E0	2.7094E-3	8.6447E-1
-2.189E1	5.6257E0	2.6866E-3	8.6587E-1
-2.0803E1	7.6153E0	2.6877E-3	8.6729E-1
-1.9506E1	9.4335E0	2.6837E-3	8.6869E-1
-1.8025E1	1.1057E1	2.6859E-3	8.7011E-1
-1.6387E1	1.2465E1	2.7112E-3	8.7151E-1
-1.4622E1	1.3644E1	2.7267E-3	8.7288E-1
-1.2762E1	1.4581E1	2.7021E-3	8.7427E-1
-1.0841E1	1.5269E1	2.6859E-3	8.7569E-1
-8.8904E0	1.5705E1	2.7023E-3	8.771E-1
-6.9436E0	1.5891E1	2.7181E-3	8.7849E-1
-5.0325E0	1.5833E1	2.7248E-3	8.7989E-1
-3.1878E0	1.554E1	2.7293E-3	8.8127E-1
-1.4382E0	1.5026E1	2.7201E-3	8.8266E-1
1.8972E-1	1.4309E1	2.7141E-3	8.8406E-1
1.6722E0	1.3408E1	2.71E-3	8.8547E-1
2.9886E0	1.2346E1	2.7164E-3	8.8688E-1
4.1218E0	1.115E1	2.7369E-3	8.8827E-1
5.0581E0	9.8456E0	2.7358E-3	8.8965E-1
5.7877E0	8.4617E0	2.7238E-3	8.9103E-1
6.3049E0	7.0272E0	2.7118E-3	8.9243E-1
6.6078E0	5.5715E0	2.7001E-3	8.9384E-1
6.6983E0	4.1236E0	2.7119E-3	8.9525E-1
6.5822E0	2.7116E0	2.7134E-3	8.9663E-1
6.2691E0	1.3623E0	2.7111E-3	8.9803E-1
5.7716E0	1.0073E-1	2.6998E-3	8.9942E-1
5.1057E0	-1.0502E0	2.6869E-3	9.0083E-1
4.2898E0	-2.0701E0	2.6795E-3	9.0223E-1
3.3449E0	-2.9416E0	2.6827E-3	9.0365E-1
2.2938E0	-3.6505E0	2.7012E-3	9.0505E-1
1.1607E0	-4.1856E0	2.7091E-3	9.0644E-1
-2.9087E-2	-4.5395E0	2.7039E-3	9.0783E-1
-1.2499E0	-4.7081E0	2.7022E-3	9.0924E-1
-2.4759E0	-4.6909E0	2.7066E-3	9.1064E-1
-3.6818E0	-4.4908E0	2.7169E-3	9.1203E-1
-4.8432E0	-4.114E0	2.7189E-3	9.1342E-1
-5.9371E0	-3.57E0	2.7162E-3	9.148E-1
-6.942E0	-2.871E0	2.6903E-3	9.162E-1
-7.8387E0	-2.0318E0	2.6764E-3	9.1761E-1
-8.6102E0	-1.0697E0	2.6841E-3	9.1903E-1
-9.2423E0	-3.6116E-3	2.698E-3	9.2043E-1
-9.7235E0	1.1458E0	2.6955E-3	9.2182E-1
-1.0045E1	2.357E0	2.6989E-3	9.2322E-1
-1.0203E1	3.6075E0	2.707E-3	9.2461E-1
-1.0193E1	4.8747E0	2.6933E-3	9.26E-1
-1.0017E1	6.1363E0	2.685E-3	9.2741E-1
-9.6785E0	7.3704E0	2.6822E-3	9.2881E-1
-9.1842E0	8.5562E0	2.6893E-3	9.3022E-1
-8.5433E0	9.6741E0	2.6933E-3	9.3161E-1
-7.7675E0	1.0706E1	2.6909E-3	9.3301E-1
-6.8704E0	1.1637E1	2.6919E-3	9.3441E-1
-5.8677E0	1.2452E1	2.6886E-3	9.358E-1
-4.7764E0	1.3141E1	2.6775E-3	9.3719E-1
-3.6147E0	1.3694E1	2.6655E-3	9.386E-1
-2.4014E0	1.4106E1	2.663E-3	9.4002E-1
-1.1558E0	1.4372E1	2.6753E-3	9.4143E-1
1.0276E-1	1.4494E1	2.6951E-3	9.4283E-1
1.3555E0	1.4471E1	2.7064E-3	9.4421E-1
2.5843E0	1.4308E1	2.6989E-3	9.4559E-1
3.7721E0	1.4013E1	2.6758E-3	9.4698E-1
4.903E0	1.3593E1	2.6549E-3	9.484E-1
5.9629E0	1.306E1	2.6704E-3	9.4982E-1
6.9396E0	1.2425E1	2.6837E-3	9.5121E-1
7.8227E0	1.1702E1	2.6789E-3	9.526E-1
8.604E0	1.0907E1	2.6734E-3	9.5401E-1
9.2777E0	1.0053E1	2.6799E-3	9.5541E-1
9.8399E0	9.1576E0	2.6851E-3	9.5681E-1
1.0289E1	8.2353E0	2.6892E-3	9.5821E-1
1.0627E1	7.3018E0	2.6938E-3	9.596E-1
1.0855E1	6.3719E0	2.6906E-3	9.6099E-1
1.0979E1	5.4594E0	2.6745E-3	9.6238E-1
1.1006E1	4.5771E0	2.6622E-3	9.6379E-1
1.0943E1	3.7365E0	2.6713E-3	9.652E-1
1.08E1	2.9474E0	2.6725E-3	9.666E-1
1.0589E1	2.2179E0	2.6811E-3	9.6801E-1
1.0319E1	1.5544E0	2.6929E-3	9.694E-1
1.0003E1	9.613E-1	2.694E-3	9.7078E-1
9.6542E0	4.4118E-1	2.6764E-3	9.7217E-1
9.2835E0	-5.3174E-3	2.6646E-3	9.7358E-1
8.903E0	-3.7935E-1	2.6628E-3	9.7497E-1
8.5239E0	-6.8381E-1	2.6424E-3	9.7638E-1
8.1565E0	-9.2319E-1	2.6417E-3	9.778E-1
7.8101E0	-1.1034E0	2.6509E-3	9.7921E-1
7.4926E0	-1.2316E0	2.6608E-3	9.8061E-1
7.2107E0	-1.3158E0	2.6638E-3	9.82E-1
6.9695E0	-1.3651E0	2.6657E-3	9.8341E-1
6.7723E0	-1.3887E0	2.6743E-3	9.848E-1
6.6211E0	-1.3965E0	2.6642E-3	9.8619E-1
6.516E0	-1.3978E0	2.6574E-3	9.8759E-1
6.4556E0	-1.4023E0	2.6544E-3	9.8899E-1
6.4371E0	-1.4187E0	2.6383E-3	9.9039E-1
6.4559E0	-1.4551E0	2.6312E-3	9.9181E-1
6.5066E0	-1.5188E0	2.6494E-3	9.9323E-1
6.5824E0	-1.6157E0	2.6757E-3	9.9463E-1
6.6758E0	-1.7505E0	2.687E-3	9.96E-1
6.7784E0	-1.9268E0	2.6705E-3	9.9738E-1
6.8817E0	-2.1462E0	2.649E-3	9.9879E-1
6.9768E0	-2.4093E0	2.6372E-3	1.0002E0
7.0548E0	-2.7147E0	2.6403E-3	1.0016E0
7.1072E0	-3.0597E0	2.6486E-3	1.003E0
7.1262E0	-3.4404E0	2.659E-3	1.0044E0
7.1046E0	-3.8511E0	2.6645E-3	1.0058E0
7.0361E0	-4.2852E0	2.6666E-3	1.0072E0
6.9157E0	-4.7352E0	2.6701E-3	1.0086E0
6.7396E0	-5.1924E0	2.6726E-3	1.01E0
6.5056E0	-5.6478E0	2.6698E-3	1.0114E0
6.2129E0	-6.0918E0	2.6679E-3	1.0128E0
5.8622E0	-6.515E0	2.6759E-3	1.0142E0
5.4559E0	-6.9077E0	2.6831E-3	1.0156E0
4.998E0	-7.261E0	2.668E-3	1.017E0
4.4938E0	-7.5661E0	2.6581E-3	1.0184E0
3.9501E0	-7.8156E0	2.6522E-3	1.0198E0
3.375E0	-8.0028E0	2.6562E-3	1.0212E0
2.7776E0	-8.1224E0	2.6511E-3	1.0226E0
2.1679E0	-8.1704E0	2.6528E-3	1.024E0
1.5565E0	-8.1444E0	2.6693E-3	1.0254E0
9.5448E-1	-8.0439E0	2.6808E-3	1.0268E0
3.7313E-1	-7.8699E0	2.674E-3	1.0282E0
-1.7645E-1	-7.625E0	2.6683E-3	1.0296E0
-6.8354E-1	-7.314E0	2.6722E-3	1.031E0
-1.138E0	-6.9428E0	2.678E-3	1.0324E0
-1.5308E0	-6.5193E0	2.6756E-3	1.0338E0
-1.8537E0	-6.0528E0	2.6707E-3	1.0352E0
-2.1001E0	-5.5537E0	2.6713E-3	1.0366E0
-2.2648E0	-5.0336E0	2.6689E-3	1.038E0
-2.3446E0	-4.505E0	2.6761E-3	1.0394E0
-2.3378E0	-3.9807E0	2.6797E-3	1.0408E0
-2.245E0	-3.4741E0	2.6794E-3	1.0422E0
-2.0684E0	-2.9984E0	2.6884E-3	1.0436E0
-1.8126E0	-2.5668E0	2.6884E-3	1.045E0
-1.4839E0	-2.1916E0	2.6836E-3	1.0464E0
-1.0907E0	-1.8844E0	2.6751E-3	1.0478E0
-6.4295E-1	-1.6556E0	2.6676E-3	1.0492E0
-1.5242E-1	-1.5141E0	2.6657E-3	1.0506E0
3.6785E-1	-1.4673E0	2.6677E-3	1.052E0
9.0361E-1	-1.5206E0	2.6777E-3	1.0534E0
1.4397E0	-1.6773E0	2.6772E-3	1.0548E0
1.9605E0	-1.9386E0	2.6608E-3	1.0562E0
2.4498E0	-2.3034E0	2.6524E-3	1.0576E0
2.8917E0	-2.7683E0	2.651E-3	1.059E0
3.2707E0	-3.3275E0	2.6408E-3	1.0604E0
3.5718E0	-3.9729E0	2.6576E-3	1.0619E0
3.7812E0	-4.6942E0	2.6849E-3	1.0632E0
3.8865E0	-5.4791E0	2.6714E-3	1.0646E0
3.8769E0	-6.3134E0	2.6473E-3	1.066E0
3.7435E0	-7.1811E0	2.6508E-3	1.0674E0
3.4797E0	-8.0652E0	2.6705E-3	1.0689E0
3.0812E0	-8.9472E0	2.6908E-3	1.0702E0
2.5462E0	-9.8082E0	2.6899E-3	1.0716E0
1.8757E0	-1.0629E1	2.6873E-3	1.073E0
1.0733E0	-1.1389E1	2.669E-3	1.0744E0
1.4542E-1	-1.2071E1	2.6615E-3	1.0758E0
-8.989E-1	-1.2655E1	2.6717E-3	1.0772E0
-2.048E0	-1.3125E1	2.6716E-3	1.0786E0
-3.2878E0	-1.3465E1	2.668E-3	1.08E0
-4.6019E0	-1.3661E1	2.6552E-3	1.0814E0
-5.9721E0	-1.3701E1	2.6618E-3	1.0828E0
-7.3781E0	-1.3576E1	2.6764E-3	1.0842E0
-8.7988E0	-1.328E1	2.6711E-3	1.0856E0
-1.0212E1	-1.2809E1	2.6664E-3	1.087E0
-1.1593E1	-1.2162E1	2.6565E-3	1.0884E0
-1.2921E1	-1.1341E1	2.644E-3	1.0898E0
-1.4171E1	-1.0353E1	2.6422E-3	1.0912E0
-1.5322E1	-9.205E0	2.6593E-3	1.0927E0
-1.6352E1	-7.9101E0	2.6709E-3	1.094E0
-1.7242E1	-6.4825E0	2.6691E-3	1.0954E0
-1.7973E1	-4.9394E0	2.654E-3	1.0968E0
-1.8529E1	-3.3006E0	2.6567E-3	1.0982E0
-1.8899E1	-1.5882E0	2.6622E-3	1.0996E0
-1.9071E1	1.7437E-1	2.6628E-3	1.101E0
-1.9039E1	1.9619E0	2.658E-3	1.1024E0
-1.8799E1	3.7482E0	2.6467E-3	1.1038E0
-1.835E1	5.5068E0	2.6506E-3	1.1052E0
