jMRUI Data Textfile

Filename: Cit.txt

PointsInDataset: 32768     
DatasetsInFile: 1         
SamplingInterval: 3.3333E-2 
ZeroOrderPhase: 0E0       
BeginTime: 0E0       
TransmitterFrequency: 2.8994E8  
MagneticField: 6.81E0    
TypeOfNucleus: 0E0       
NameOfPatient: 
DateOfExperiment: 
Spectrometer: 
AdditionalInfo: 
SignalNames: Cit;


Signal and FFT
sig(real)	sig(imag)	fft(real)	fft(imag)
Signal 1 out of 1 in file
5.2824E-5	-1.0153E-11	5.229E-9	1.6847E-6
5.238E-5	-6.7484E-6	5.2185E-9	1.6872E-6
5.1076E-5	-1.3383E-5	5.1679E-9	1.6897E-6
4.8936E-5	-1.9795E-5	5.1229E-9	1.6923E-6
4.5993E-5	-2.5879E-5	5.1316E-9	1.6948E-6
4.2298E-5	-3.1536E-5	5.1419E-9	1.6974E-6
3.7911E-5	-3.6671E-5	5.1713E-9	1.7E-6
3.2905E-5	-4.1203E-5	5.2013E-9	1.7025E-6
2.7362E-5	-4.5056E-5	5.188E-9	1.705E-6
2.1373E-5	-4.8167E-5	5.1547E-9	1.7076E-6
1.5038E-5	-5.0486E-5	5.1902E-9	1.7101E-6
8.4608E-6	-5.1976E-5	5.2124E-9	1.7127E-6
1.7493E-6	-5.2612E-5	5.1841E-9	1.7152E-6
-4.9859E-6	-5.2385E-5	5.1981E-9	1.7178E-6
-1.1634E-5	-5.1298E-5	5.2219E-9	1.7203E-6
-1.8086E-5	-4.9371E-5	5.2211E-9	1.7228E-6
-2.4237E-5	-4.6636E-5	5.2159E-9	1.7254E-6
-2.9984E-5	-4.3138E-5	5.2332E-9	1.7279E-6
-3.5235E-5	-3.8936E-5	5.2035E-9	1.7304E-6
-3.9903E-5	-3.4099E-5	5.1794E-9	1.733E-6
-4.3913E-5	-2.8707E-5	5.1908E-9	1.7355E-6
-4.7198E-5	-2.285E-5	5.1656E-9	1.7381E-6
-4.9706E-5	-1.6623E-5	5.1477E-9	1.7406E-6
-5.1397E-5	-1.013E-5	5.1779E-9	1.7432E-6
-5.2243E-5	-3.478E-6	5.2146E-9	1.7457E-6
-5.2231E-5	3.2244E-6	5.1906E-9	1.7482E-6
-5.1363E-5	9.8666E-6	5.1593E-9	1.7508E-6
-4.9653E-5	1.634E-5	5.1797E-9	1.7534E-6
-4.7131E-5	2.2537E-5	5.2012E-9	1.7559E-6
-4.3839E-5	2.8358E-5	5.2403E-9	1.7585E-6
-3.9832E-5	3.3707E-5	5.2472E-9	1.761E-6
-3.5177E-5	3.8497E-5	5.2342E-9	1.7635E-6
-2.995E-5	4.2649E-5	5.2453E-9	1.7661E-6
-2.424E-5	4.6097E-5	5.2374E-9	1.7686E-6
-1.8139E-5	4.8785E-5	5.2219E-9	1.7711E-6
-1.1748E-5	5.0669E-5	5.2047E-9	1.7737E-6
-5.1742E-6	5.1719E-5	5.1605E-9	1.7762E-6
1.4758E-6	5.192E-5	5.1582E-9	1.7788E-6
8.0923E-6	5.127E-5	5.1603E-9	1.7814E-6
1.4567E-5	4.9779E-5	5.1867E-9	1.7839E-6
2.0793E-5	4.7475E-5	5.2162E-9	1.7865E-6
2.6669E-5	4.4396E-5	5.243E-9	1.789E-6
3.2098E-5	4.0593E-5	5.2396E-9	1.7915E-6
3.6994E-5	3.6131E-5	5.2084E-9	1.794E-6
4.1274E-5	3.1083E-5	5.1914E-9	1.7966E-6
4.4872E-5	2.5534E-5	5.2145E-9	1.7992E-6
4.7728E-5	1.9575E-5	5.1948E-9	1.8017E-6
4.9796E-5	1.3305E-5	5.192E-9	1.8042E-6
5.1045E-5	6.8267E-6	5.1878E-9	1.8068E-6
5.1455E-5	2.4805E-7	5.1827E-9	1.8094E-6
5.102E-5	-6.3233E-6	5.1948E-9	1.8119E-6
4.975E-5	-1.278E-5	5.2159E-9	1.8145E-6
4.7666E-5	-1.9015E-5	5.226E-9	1.817E-6
4.4805E-5	-2.4927E-5	5.2394E-9	1.8196E-6
4.1214E-5	-3.042E-5	5.2714E-9	1.8221E-6
3.6955E-5	-3.5403E-5	5.2701E-9	1.8246E-6
3.2098E-5	-3.9797E-5	5.2633E-9	1.8272E-6
2.6723E-5	-4.353E-5	5.2903E-9	1.8297E-6
2.0921E-5	-4.6543E-5	5.2883E-9	1.8322E-6
1.4788E-5	-4.8786E-5	5.2723E-9	1.8348E-6
8.4245E-6	-5.0225E-5	5.2655E-9	1.8373E-6
1.9357E-6	-5.0838E-5	5.256E-9	1.8398E-6
-4.5714E-6	-5.0616E-5	5.2352E-9	1.8424E-6
-1.099E-5	-4.9565E-5	5.1957E-9	1.845E-6
-1.7215E-5	-4.7704E-5	5.2114E-9	1.8476E-6
-2.3145E-5	-4.5064E-5	5.2641E-9	1.8501E-6
-2.8682E-5	-4.1692E-5	5.2789E-9	1.8526E-6
-3.3737E-5	-3.7644E-5	5.2718E-9	1.8552E-6
-3.8228E-5	-3.2988E-5	5.3071E-9	1.8577E-6
-4.2082E-5	-2.7801E-5	5.3574E-9	1.8603E-6
-4.5238E-5	-2.217E-5	5.3705E-9	1.8628E-6
-4.7645E-5	-1.6189E-5	5.3453E-9	1.8652E-6
-4.9265E-5	-9.957E-6	5.2858E-9	1.8678E-6
-5.0074E-5	-3.5761E-6	5.2421E-9	1.8703E-6
-5.006E-5	2.8482E-6	5.2407E-9	1.8729E-6
-4.9226E-5	9.2103E-6	5.2417E-9	1.8755E-6
-4.7587E-5	1.5406E-5	5.2334E-9	1.878E-6
-4.5173E-5	2.1334E-5	5.1947E-9	1.8805E-6
-4.2023E-5	2.6897E-5	5.1764E-9	1.8832E-6
-3.8193E-5	3.2006E-5	5.2091E-9	1.8857E-6
-3.3747E-5	3.6577E-5	5.253E-9	1.8883E-6
-2.876E-5	4.0537E-5	5.3214E-9	1.8908E-6
-2.3313E-5	4.3822E-5	5.3376E-9	1.8933E-6
-1.75E-5	4.638E-5	5.3103E-9	1.8959E-6
-1.1414E-5	4.8171E-5	5.3148E-9	1.8984E-6
-5.1586E-6	4.9168E-5	5.3429E-9	1.901E-6
1.1648E-6	4.9357E-5	5.3613E-9	1.9034E-6
7.4518E-6	4.8736E-5	5.3042E-9	1.9059E-6
1.3599E-5	4.7318E-5	5.2193E-9	1.9085E-6
1.9506E-5	4.5129E-5	5.1911E-9	1.9111E-6
2.5077E-5	4.2206E-5	5.2185E-9	1.9137E-6
3.0221E-5	3.86E-5	5.2588E-9	1.9163E-6
3.4855E-5	3.4372E-5	5.2787E-9	1.9188E-6
3.8905E-5	2.9593E-5	5.2899E-9	1.9213E-6
4.2304E-5	2.4343E-5	5.2838E-9	1.9239E-6
4.5001E-5	1.871E-5	5.2779E-9	1.9264E-6
4.6952E-5	1.2787E-5	5.2936E-9	1.929E-6
4.8127E-5	6.6728E-6	5.2994E-9	1.9315E-6
4.8511E-5	4.6774E-7	5.2946E-9	1.9341E-6
4.8098E-5	-5.7259E-6	5.2991E-9	1.9366E-6
4.6899E-5	-1.1806E-5	5.2682E-9	1.9391E-6
4.4934E-5	-1.7674E-5	5.2762E-9	1.9417E-6
4.224E-5	-2.3234E-5	5.2925E-9	1.9443E-6
3.8862E-5	-2.8395E-5	5.2967E-9	1.9468E-6
3.4859E-5	-3.3074E-5	5.3042E-9	1.9493E-6
3.0297E-5	-3.7196E-5	5.3077E-9	1.9519E-6
2.5254E-5	-4.0696E-5	5.3191E-9	1.9544E-6
1.9814E-5	-4.3516E-5	5.3036E-9	1.957E-6
1.4067E-5	-4.5614E-5	5.3311E-9	1.9595E-6
8.1095E-6	-4.6958E-5	5.3435E-9	1.9621E-6
2.0392E-6	-4.7528E-5	5.3534E-9	1.9646E-6
-4.0436E-6	-4.7317E-5	5.3871E-9	1.9671E-6
-1.0039E-5	-4.6332E-5	5.3809E-9	1.9696E-6
-1.5849E-5	-4.4591E-5	5.3117E-9	1.9721E-6
-2.1379E-5	-4.2125E-5	5.24E-9	1.9747E-6
-2.6539E-5	-3.8978E-5	5.2435E-9	1.9773E-6
-3.1246E-5	-3.5204E-5	5.2969E-9	1.9799E-6
-3.5424E-5	-3.0867E-5	5.3061E-9	1.9824E-6
-3.9006E-5	-2.604E-5	5.3146E-9	1.985E-6
-4.1936E-5	-2.0804E-5	5.277E-9	1.9875E-6
-4.4168E-5	-1.5246E-5	5.278E-9	1.9901E-6
-4.5668E-5	-9.4595E-6	5.3335E-9	1.9927E-6
-4.6415E-5	-3.5398E-6	5.3653E-9	1.9952E-6
-4.6398E-5	2.4155E-6	5.3556E-9	1.9977E-6
-4.5621E-5	8.3084E-6	5.3567E-9	2.0002E-6
-4.41E-5	1.4043E-5	5.3516E-9	2.0028E-6
-4.1863E-5	1.9524E-5	5.3408E-9	2.0053E-6
-3.8948E-5	2.4665E-5	5.33E-9	2.0079E-6
-3.5407E-5	2.9381E-5	5.3268E-9	2.0104E-6
-3.13E-5	3.3597E-5	5.3064E-9	2.0129E-6
-2.6696E-5	3.7246E-5	5.2534E-9	2.0155E-6
-2.1674E-5	4.027E-5	5.2593E-9	2.0181E-6
-1.6317E-5	4.2623E-5	5.2748E-9	2.0207E-6
-1.0715E-5	4.4267E-5	5.3269E-9	2.0232E-6
-4.9604E-6	4.5179E-5	5.3329E-9	2.0258E-6
8.5152E-7	4.5348E-5	5.3507E-9	2.0283E-6
6.6251E-6	4.4773E-5	5.3672E-9	2.0308E-6
1.2266E-5	4.3467E-5	5.3866E-9	2.0334E-6
1.7682E-5	4.1455E-5	5.3622E-9	2.0359E-6
2.2785E-5	3.8772E-5	5.3215E-9	2.0384E-6
2.7493E-5	3.5466E-5	5.3026E-9	2.041E-6
3.173E-5	3.1593E-5	5.3003E-9	2.0435E-6
3.5428E-5	2.722E-5	5.294E-9	2.0461E-6
3.8531E-5	2.242E-5	5.2961E-9	2.0487E-6
4.0988E-5	1.7274E-5	5.2834E-9	2.0512E-6
4.2763E-5	1.1868E-5	5.3217E-9	2.0538E-6
4.383E-5	6.2925E-6	5.3428E-9	2.0563E-6
4.4174E-5	6.3891E-7	5.3378E-9	2.0589E-6
4.3792E-5	-4.9993E-6	5.3339E-9	2.0614E-6
4.2696E-5	-1.053E-5	5.3739E-9	2.064E-6
4.0905E-5	-1.5862E-5	5.416E-9	2.0665E-6
3.8453E-5	-2.091E-5	5.3972E-9	2.069E-6
3.5382E-5	-2.5591E-5	5.4057E-9	2.0716E-6
3.1746E-5	-2.9832E-5	5.433E-9	2.0741E-6
2.7608E-5	-3.3563E-5	5.4076E-9	2.0766E-6
2.3037E-5	-3.6727E-5	5.3493E-9	2.0792E-6
1.8112E-5	-3.9275E-5	5.3433E-9	2.0817E-6
1.2913E-5	-4.1166E-5	5.3316E-9	2.0843E-6
7.5285E-6	-4.2375E-5	5.3178E-9	2.0868E-6
2.0471E-6	-4.2883E-5	5.3023E-9	2.0894E-6
-3.4407E-6	-4.2687E-5	5.3472E-9	2.092E-6
-8.8447E-6	-4.1792E-5	5.3837E-9	2.0945E-6
-1.4077E-5	-4.0218E-5	5.4015E-9	2.0971E-6
-1.9052E-5	-3.7993E-5	5.4041E-9	2.0996E-6
-2.369E-5	-3.5157E-5	5.388E-9	2.1021E-6
-2.7916E-5	-3.1759E-5	5.3787E-9	2.1047E-6
-3.1663E-5	-2.786E-5	5.3842E-9	2.1072E-6
-3.4872E-5	-2.3524E-5	5.3622E-9	2.1097E-6
-3.7494E-5	-1.8826E-5	5.3483E-9	2.1123E-6
-3.9487E-5	-1.3844E-5	5.3421E-9	2.1149E-6
-4.0824E-5	-8.6615E-6	5.3552E-9	2.1174E-6
-4.1485E-5	-3.365E-6	5.3332E-9	2.12E-6
-4.1463E-5	1.9582E-6	5.3157E-9	2.1225E-6
-4.0762E-5	7.2206E-6	5.3096E-9	2.1251E-6
-3.9398E-5	1.2336E-5	5.285E-9	2.1277E-6
-3.7396E-5	1.7222E-5	5.3059E-9	2.1303E-6
-3.4792E-5	2.1799E-5	5.3738E-9	2.1328E-6
-3.1633E-5	2.5993E-5	5.455E-9	2.1354E-6
-2.7974E-5	2.9739E-5	5.4775E-9	2.1378E-6
-2.3877E-5	3.2977E-5	5.4165E-9	2.1403E-6
-1.9413E-5	3.5656E-5	5.3907E-9	2.1429E-6
-1.4656E-5	3.7737E-5	5.393E-9	2.1454E-6
-9.6857E-6	3.9188E-5	5.3552E-9	2.1479E-6
-4.5856E-6	3.9988E-5	5.2873E-9	2.1505E-6
5.6002E-7	4.013E-5	5.2522E-9	2.1531E-6
5.6666E-6	3.9613E-5	5.2973E-9	2.1557E-6
1.0651E-5	3.8451E-5	5.328E-9	2.1582E-6
1.5431E-5	3.6666E-5	5.3073E-9	2.1608E-6
1.993E-5	3.4292E-5	5.3219E-9	2.1634E-6
2.4076E-5	3.137E-5	5.3282E-9	2.1659E-6
2.7803E-5	2.7952E-5	5.3419E-9	2.1685E-6
3.1053E-5	2.4097E-5	5.3825E-9	2.171E-6
3.3774E-5	1.9871E-5	5.3892E-9	2.1736E-6
3.5926E-5	1.5345E-5	5.4088E-9	2.1761E-6
3.7476E-5	1.0596E-5	5.4179E-9	2.1786E-6
3.8403E-5	5.7025E-6	5.4007E-9	2.1812E-6
3.8696E-5	7.4628E-7	5.3934E-9	2.1837E-6
3.8353E-5	-4.1912E-6	5.3818E-9	2.1863E-6
3.7385E-5	-9.029E-6	5.3791E-9	2.1888E-6
3.581E-5	-1.3688E-5	5.3239E-9	2.1913E-6
3.366E-5	-1.8094E-5	5.3067E-9	2.1939E-6
3.0972E-5	-2.2175E-5	5.3408E-9	2.1965E-6
2.7794E-5	-2.5867E-5	5.3854E-9	2.1991E-6
2.4182E-5	-2.9111E-5	5.3892E-9	2.2016E-6
2.0198E-5	-3.1858E-5	5.3792E-9	2.2042E-6
1.5909E-5	-3.4065E-5	5.4137E-9	2.2067E-6
1.1388E-5	-3.57E-5	5.418E-9	2.2092E-6
6.7102E-6	-3.674E-5	5.4089E-9	2.2118E-6
1.9541E-6	-3.7171E-5	5.3747E-9	2.2143E-6
-2.8022E-6	-3.6991E-5	5.3349E-9	2.2169E-6
-7.4804E-6	-3.6206E-5	5.3545E-9	2.2195E-6
-1.2004E-5	-3.4834E-5	5.3586E-9	2.222E-6
-1.6301E-5	-3.2902E-5	5.3639E-9	2.2246E-6
-2.0301E-5	-3.0444E-5	5.4103E-9	2.2271E-6
-2.3942E-5	-2.7504E-5	5.4195E-9	2.2297E-6
-2.7165E-5	-2.4135E-5	5.4002E-9	2.2322E-6
-2.992E-5	-2.0394E-5	5.3869E-9	2.2348E-6
-3.2167E-5	-1.6346E-5	5.3978E-9	2.2373E-6
-3.3871E-5	-1.2058E-5	5.4177E-9	2.2399E-6
-3.5009E-5	-7.6043E-6	5.418E-9	2.2424E-6
-3.5565E-5	-3.0575E-6	5.4165E-9	2.245E-6
-3.5535E-5	1.5066E-6	5.4311E-9	2.2475E-6
-3.4924E-5	6.013E-6	5.4292E-9	2.25E-6
-3.3745E-5	1.0388E-5	5.4183E-9	2.2525E-6
-3.2023E-5	1.4561E-5	5.3672E-9	2.2551E-6
-2.9789E-5	1.8465E-5	5.3253E-9	2.2577E-6
-2.7085E-5	2.2038E-5	5.3339E-9	2.2603E-6
-2.3957E-5	2.5223E-5	5.3493E-9	2.2628E-6
-2.046E-5	2.7972E-5	5.3479E-9	2.2654E-6
-1.6655E-5	3.0242E-5	5.3498E-9	2.268E-6
-1.2606E-5	3.2E-5	5.3712E-9	2.2705E-6
-8.381E-6	3.3221E-5	5.3856E-9	2.2731E-6
-4.0517E-6	3.3888E-5	5.4225E-9	2.2756E-6
3.1051E-7	3.3996E-5	5.4527E-9	2.2782E-6
4.6338E-6	3.3546E-5	5.4639E-9	2.2807E-6
