jMRUI Data Textfile

Filename: Cystathionine.txt

PointsInDataset: 32768     
DatasetsInFile: 1         
SamplingInterval: 3.3333E-2 
ZeroOrderPhase: 0E0       
BeginTime: 0E0       
TransmitterFrequency: 2.8994E8  
MagneticField: 6.81E0    
TypeOfNucleus: 0E0       
NameOfPatient: 
DateOfExperiment: 
Spectrometer: 
AdditionalInfo: 
SignalNames: Cystathionine;


Signal and FFT
sig(real)	sig(imag)	fft(real)	fft(imag)
Signal 1 out of 1 in file
2.113E-4	-3.3279E-11	2.7811E-9	5.5604E-6
2.0993E-4	-2.2125E-5	2.7498E-9	5.5706E-6
2.0596E-4	-4.3902E-5	2.7415E-9	5.5808E-6
1.9944E-4	-6.5002E-5	2.7589E-9	5.5909E-6
1.905E-4	-8.5105E-5	2.77E-9	5.6011E-6
1.7928E-4	-1.0391E-4	2.7869E-9	5.6112E-6
1.6598E-4	-1.2115E-4	2.7719E-9	5.6214E-6
1.5083E-4	-1.3657E-4	2.7344E-9	5.6315E-6
1.3408E-4	-1.4996E-4	2.6612E-9	5.6417E-6
1.1602E-4	-1.6115E-4	2.6578E-9	5.652E-6
9.6948E-5	-1.6999E-4	2.7321E-9	5.6622E-6
7.7185E-5	-1.7641E-4	2.8133E-9	5.6723E-6
5.7053E-5	-1.8036E-4	2.8261E-9	5.6824E-6
3.6874E-5	-1.8182E-4	2.7801E-9	5.6925E-6
1.6971E-5	-1.8084E-4	2.759E-9	5.7027E-6
-2.3497E-6	-1.7751E-4	2.7585E-9	5.7129E-6
-2.0795E-5	-1.7195E-4	2.7783E-9	5.7231E-6
-3.8094E-5	-1.6431E-4	2.7799E-9	5.7332E-6
-5.4005E-5	-1.5479E-4	2.7977E-9	5.7434E-6
-6.8314E-5	-1.4361E-4	2.8206E-9	5.7535E-6
-8.0844E-5	-1.3103E-4	2.8248E-9	5.7637E-6
-9.1454E-5	-1.173E-4	2.8363E-9	5.7738E-6
-1.0004E-4	-1.0271E-4	2.8312E-9	5.784E-6
-1.0655E-4	-8.7544E-5	2.8016E-9	5.7941E-6
-1.1095E-4	-7.2092E-5	2.7486E-9	5.8043E-6
-1.1328E-4	-5.6639E-5	2.7136E-9	5.8145E-6
-1.1357E-4	-4.1462E-5	2.7558E-9	5.8247E-6
-1.1194E-4	-2.6821E-5	2.8293E-9	5.8349E-6
-1.0851E-4	-1.2959E-5	2.8577E-9	5.845E-6
-1.0343E-4	-9.3682E-8	2.8173E-9	5.8551E-6
-9.69E-5	1.1585E-5	2.7951E-9	5.8652E-6
-8.9117E-5	2.1918E-5	2.7589E-9	5.8754E-6
-8.0306E-5	3.0777E-5	2.7382E-9	5.8856E-6
-7.0702E-5	3.8072E-5	2.7528E-9	5.8958E-6
-6.0547E-5	4.3745E-5	2.7842E-9	5.906E-6
-5.0081E-5	4.7776E-5	2.8062E-9	5.9161E-6
-3.9544E-5	5.0178E-5	2.8064E-9	5.9262E-6
-2.9163E-5	5.0999E-5	2.7654E-9	5.9364E-6
-1.9156E-5	5.0315E-5	2.7635E-9	5.9465E-6
-9.7197E-6	4.8235E-5	2.735E-9	5.9567E-6
-1.0305E-6	4.4889E-5	2.7091E-9	5.9669E-6
6.7593E-6	4.043E-5	2.6933E-9	5.9771E-6
1.3524E-5	3.5028E-5	2.7103E-9	5.9873E-6
1.9168E-5	2.8865E-5	2.7763E-9	5.9974E-6
2.3623E-5	2.2131E-5	2.7736E-9	6.0076E-6
2.6853E-5	1.5021E-5	2.787E-9	6.0178E-6
2.885E-5	7.7276E-6	2.8372E-9	6.0279E-6
2.9636E-5	4.3716E-7	2.8148E-9	6.038E-6
2.9258E-5	-6.6721E-6	2.7293E-9	6.0481E-6
2.779E-5	-1.3436E-5	2.6674E-9	6.0583E-6
2.5326E-5	-1.9707E-5	2.6494E-9	6.0686E-6
2.198E-5	-2.5357E-5	2.715E-9	6.0788E-6
1.7882E-5	-3.0281E-5	2.7501E-9	6.0889E-6
1.317E-5	-3.4394E-5	2.7612E-9	6.0991E-6
7.9926E-6	-3.7639E-5	2.803E-9	6.1092E-6
2.5008E-6	-3.9983E-5	2.7856E-9	6.1193E-6
-3.1551E-6	-4.1417E-5	2.7206E-9	6.1294E-6
-8.8292E-6	-4.1955E-5	2.6531E-9	6.1396E-6
-1.4383E-5	-4.1635E-5	2.6592E-9	6.1499E-6
-1.9691E-5	-4.0515E-5	2.6882E-9	6.1601E-6
-2.464E-5	-3.867E-5	2.7176E-9	6.1702E-6
-2.9133E-5	-3.6191E-5	2.693E-9	6.1804E-6
-3.3094E-5	-3.3179E-5	2.7304E-9	6.1906E-6
-3.6465E-5	-2.9747E-5	2.7417E-9	6.2007E-6
-3.9208E-5	-2.601E-5	2.6865E-9	6.2108E-6
-4.1308E-5	-2.2086E-5	2.6609E-9	6.221E-6
-4.2769E-5	-1.8091E-5	2.6728E-9	6.2312E-6
-4.3615E-5	-1.4136E-5	2.6502E-9	6.2414E-6
-4.3888E-5	-1.0322E-5	2.6338E-9	6.2515E-6
-4.3645E-5	-6.7397E-6	2.6121E-9	6.2617E-6
-4.2959E-5	-3.4671E-6	2.6327E-9	6.272E-6
-4.1913E-5	-5.6572E-7	2.6855E-9	6.2821E-6
-4.0598E-5	1.9201E-6	2.6984E-9	6.2923E-6
-3.9111E-5	3.9638E-6	2.6941E-9	6.3024E-6
-3.7549E-5	5.5576E-6	2.6815E-9	6.3126E-6
-3.6009E-5	6.712E-6	2.6686E-9	6.3228E-6
-3.4584E-5	7.4553E-6	2.6847E-9	6.3329E-6
-3.3358E-5	7.8324E-6	2.6548E-9	6.3431E-6
-3.2405E-5	7.9032E-6	2.6517E-9	6.3533E-6
-3.1786E-5	7.7406E-6	2.6852E-9	6.3635E-6
-3.1548E-5	7.4279E-6	2.6976E-9	6.3736E-6
-3.1722E-5	7.0561E-6	2.7429E-9	6.3838E-6
-3.232E-5	6.7211E-6	2.7814E-9	6.3939E-6
-3.3335E-5	6.5202E-6	2.7403E-9	6.404E-6
-3.4745E-5	6.5494E-6	2.6725E-9	6.4142E-6
-3.6508E-5	6.8998E-6	2.6326E-9	6.4244E-6
-3.8565E-5	7.6548E-6	2.625E-9	6.4346E-6
-4.0842E-5	8.8874E-6	2.6511E-9	6.4448E-6
-4.3252E-5	1.0657E-5	2.6739E-9	6.455E-6
-4.5696E-5	1.3009E-5	2.7271E-9	6.4652E-6
-4.8068E-5	1.5968E-5	2.7588E-9	6.4753E-6
-5.0256E-5	1.9546E-5	2.7474E-9	6.4854E-6
-5.2143E-5	2.3729E-5	2.6795E-9	6.4955E-6
-5.3617E-5	2.8488E-5	2.6076E-9	6.5057E-6
-5.4568E-5	3.3773E-5	2.5648E-9	6.516E-6
-5.4894E-5	3.9514E-5	2.5923E-9	6.5262E-6
-5.4502E-5	4.5625E-5	2.6354E-9	6.5364E-6
-5.3316E-5	5.2003E-5	2.6706E-9	6.5466E-6
-5.1272E-5	5.8533E-5	2.6969E-9	6.5567E-6
-4.8326E-5	6.5088E-5	2.6855E-9	6.5669E-6
-4.4454E-5	7.1532E-5	2.681E-9	6.577E-6
-3.9654E-5	7.7726E-5	2.6559E-9	6.5872E-6
-3.3944E-5	8.3528E-5	2.6456E-9	6.5974E-6
-2.7364E-5	8.8799E-5	2.6565E-9	6.6076E-6
-1.9979E-5	9.3406E-5	2.6865E-9	6.6178E-6
-1.1871E-5	9.7225E-5	2.7161E-9	6.628E-6
-3.144E-6	1.0014E-4	2.7345E-9	6.6381E-6
6.0819E-6	1.0206E-4	2.7621E-9	6.6483E-6
1.5671E-5	1.029E-4	2.7532E-9	6.6584E-6
2.5476E-5	1.0261E-4	2.7443E-9	6.6686E-6
3.5339E-5	1.0114E-4	2.7058E-9	6.6788E-6
4.5099E-5	9.8486E-5	2.7221E-9	6.689E-6
5.4592E-5	9.4658E-5	2.7784E-9	6.6991E-6
6.3655E-5	8.969E-5	2.7616E-9	6.7092E-6
7.2131E-5	8.3642E-5	2.7312E-9	6.7194E-6
7.9874E-5	7.6596E-5	2.7274E-9	6.7296E-6
8.6748E-5	6.8657E-5	2.7354E-9	6.7398E-6
9.2635E-5	5.9948E-5	2.735E-9	6.75E-6
9.7435E-5	5.0609E-5	2.7369E-9	6.7602E-6
1.0107E-4	4.0794E-5	2.7668E-9	6.7703E-6
1.0348E-4	3.0668E-5	2.8002E-9	6.7805E-6
1.0465E-4	2.0403E-5	2.7776E-9	6.7906E-6
1.0455E-4	1.0173E-5	2.7708E-9	6.8008E-6
1.0322E-4	1.5375E-7	2.7999E-9	6.811E-6
1.0071E-4	-9.487E-6	2.7706E-9	6.8211E-6
9.7074E-5	-1.8588E-5	2.7169E-9	6.8312E-6
9.2419E-5	-2.7002E-5	2.6783E-9	6.8415E-6
8.6858E-5	-3.4595E-5	2.6685E-9	6.8517E-6
8.0525E-5	-4.1255E-5	2.7397E-9	6.8619E-6
7.3569E-5	-4.6888E-5	2.749E-9	6.872E-6
6.6152E-5	-5.1428E-5	2.7536E-9	6.8822E-6
5.8443E-5	-5.483E-5	2.7499E-9	6.8923E-6
5.0618E-5	-5.7077E-5	2.7192E-9	6.9025E-6
4.285E-5	-5.8181E-5	2.7345E-9	6.9127E-6
3.531E-5	-5.8176E-5	2.735E-9	6.9229E-6
2.816E-5	-5.7126E-5	2.7347E-9	6.9331E-6
2.1551E-5	-5.5116E-5	2.7323E-9	6.9433E-6
1.5618E-5	-5.2255E-5	2.7574E-9	6.9534E-6
1.0478E-5	-4.8671E-5	2.7903E-9	6.9636E-6
6.2265E-6	-4.4508E-5	2.8064E-9	6.9737E-6
2.9336E-6	-3.9924E-5	2.7779E-9	6.9839E-6
6.4535E-7	-3.5084E-5	2.706E-9	6.994E-6
-6.196E-7	-3.016E-5	2.7044E-9	7.0043E-6
-8.6987E-7	-2.5325E-5	2.7035E-9	7.0144E-6
-1.4132E-7	-2.0748E-5	2.7357E-9	7.0246E-6
1.5037E-6	-1.6589E-5	2.7662E-9	7.0348E-6
3.9779E-6	-1.2998E-5	2.7214E-9	7.0449E-6
7.1708E-6	-1.011E-5	2.7251E-9	7.0551E-6
1.0952E-5	-8.0394E-6	2.7617E-9	7.0653E-6
1.5172E-5	-6.8792E-6	2.7406E-9	7.0754E-6
1.9671E-5	-6.6983E-6	2.671E-9	7.0856E-6
2.4277E-5	-7.539E-6	2.6506E-9	7.0958E-6
2.8811E-5	-9.4158E-6	2.6437E-9	7.106E-6
3.3096E-5	-1.2315E-5	2.6714E-9	7.1162E-6
3.6957E-5	-1.6193E-5	2.6672E-9	7.1264E-6
4.0226E-5	-2.0981E-5	2.6749E-9	7.1366E-6
4.2746E-5	-2.6581E-5	2.7255E-9	7.1468E-6
4.4378E-5	-3.2873E-5	2.6922E-9	7.1569E-6
4.5002E-5	-3.9713E-5	2.66E-9	7.1671E-6
4.452E-5	-4.6941E-5	2.6783E-9	7.1773E-6
4.286E-5	-5.4379E-5	2.6814E-9	7.1875E-6
3.9977E-5	-6.1839E-5	2.6882E-9	7.1977E-6
3.5858E-5	-6.9127E-5	2.6904E-9	7.2078E-6
3.0517E-5	-7.6046E-5	2.6653E-9	7.218E-6
2.4001E-5	-8.2403E-5	2.6895E-9	7.2282E-6
1.6385E-5	-8.801E-5	2.7329E-9	7.2384E-6
7.7744E-6	-9.2692E-5	2.7283E-9	7.2485E-6
-1.6996E-6	-9.629E-5	2.7108E-9	7.2587E-6
-1.1881E-5	-9.8664E-5	2.6872E-9	7.2689E-6
-2.2593E-5	-9.9699E-5	2.6697E-9	7.2791E-6
-3.3642E-5	-9.9306E-5	2.681E-9	7.2892E-6
-4.482E-5	-9.7425E-5	2.666E-9	7.2994E-6
-5.5909E-5	-9.4028E-5	2.6742E-9	7.3096E-6
-6.6689E-5	-8.9118E-5	2.7014E-9	7.3198E-6
-7.6941E-5	-8.2732E-5	2.6859E-9	7.3299E-6
-8.6448E-5	-7.4939E-5	2.6284E-9	7.3401E-6
-9.5008E-5	-6.5841E-5	2.6204E-9	7.3503E-6
-1.0243E-4	-5.5569E-5	2.6256E-9	7.3605E-6
-1.0855E-4	-4.4279E-5	2.657E-9	7.3707E-6
-1.1321E-4	-3.2157E-5	2.6475E-9	7.3809E-6
-1.163E-4	-1.9406E-5	2.6205E-9	7.3911E-6
-1.1773E-4	-6.2456E-6	2.6498E-9	7.4013E-6
-1.1744E-4	7.0893E-6	2.6535E-9	7.4115E-6
-1.1541E-4	2.0358E-5	2.679E-9	7.4217E-6
-1.1165E-4	3.3318E-5	2.706E-9	7.4318E-6
-1.062E-4	4.5727E-5	2.7111E-9	7.442E-6
-9.9158E-5	5.7353E-5	2.7124E-9	7.4522E-6
-9.0626E-5	6.7974E-5	2.7137E-9	7.4624E-6
-8.0752E-5	7.7388E-5	2.7416E-9	7.4725E-6
-6.971E-5	8.5413E-5	2.7576E-9	7.4827E-6
-5.77E-5	9.1893E-5	2.7418E-9	7.4928E-6
-4.4941E-5	9.6703E-5	2.692E-9	7.503E-6
-3.1671E-5	9.9747E-5	2.6452E-9	7.5132E-6
-1.8137E-5	1.0097E-4	2.6426E-9	7.5234E-6
-4.5968E-6	1.0033E-4	2.6719E-9	7.5336E-6
8.6937E-6	9.7864E-5	2.7074E-9	7.5438E-6
2.148E-5	9.3606E-5	2.7507E-9	7.554E-6
3.3517E-5	8.7641E-5	2.7494E-9	7.5641E-6
4.4573E-5	8.009E-5	2.7072E-9	7.5742E-6
5.4435E-5	7.1101E-5	2.6491E-9	7.5844E-6
6.2914E-5	6.0853E-5	2.6067E-9	7.5946E-6
6.9845E-5	4.955E-5	2.5797E-9	7.6049E-6
7.5096E-5	3.7417E-5	2.5947E-9	7.6151E-6
7.8567E-5	2.4696E-5	2.6306E-9	7.6253E-6
8.0192E-5	1.164E-5	2.7031E-9	7.6355E-6
7.9942E-5	-1.4896E-6	2.6804E-9	7.6456E-6
7.7825E-5	-1.4432E-5	2.6515E-9	7.6558E-6
7.3885E-5	-2.6929E-5	2.6476E-9	7.666E-6
6.8203E-5	-3.8731E-5	2.6478E-9	7.6762E-6
6.0891E-5	-4.9603E-5	2.6104E-9	7.6863E-6
5.2096E-5	-5.9328E-5	2.6016E-9	7.6966E-6
4.1992E-5	-6.7712E-5	2.6594E-9	7.7068E-6
3.0778E-5	-7.4587E-5	2.6724E-9	7.7169E-6
1.8674E-5	-7.9816E-5	2.6697E-9	7.7271E-6
5.917E-6	-8.3293E-5	2.6733E-9	7.7373E-6
-7.2447E-6	-8.4947E-5	2.6494E-9	7.7474E-6
-2.0556E-5	-8.4742E-5	2.598E-9	7.7576E-6
-3.3761E-5	-8.2677E-5	2.5762E-9	7.7678E-6
-4.6605E-5	-7.8787E-5	2.5807E-9	7.778E-6
-5.8843E-5	-7.3144E-5	2.5918E-9	7.7882E-6
-7.0245E-5	-6.5848E-5	2.6178E-9	7.7984E-6
-8.0595E-5	-5.7033E-5	2.6268E-9	7.8086E-6
-8.9701E-5	-4.686E-5	2.5899E-9	7.8188E-6
-9.7393E-5	-3.5512E-5	2.5997E-9	7.829E-6
-1.0353E-4	-2.3196E-5	2.5951E-9	7.8391E-6
-1.0801E-4	-1.013E-5	2.5687E-9	7.8493E-6
-1.1075E-4	3.4524E-6	2.5426E-9	7.8596E-6
-1.117E-4	1.7313E-5	2.5403E-9	7.8698E-6
-1.1086E-4	3.1212E-5	2.5977E-9	7.88E-6
-1.0824E-4	4.4911E-5	2.655E-9	7.8902E-6
-1.039E-4	5.818E-5	2.6619E-9	7.9003E-6
-9.7916E-5	7.0799E-5	2.6619E-9	7.9105E-6
-9.0407E-5	8.2567E-5	2.6586E-9	7.9207E-6
-8.1508E-5	9.3298E-5	2.6556E-9	7.9309E-6
