jMRUI Data Textfile

Filename: TwoHG.txt

PointsInDataset: 32768     
DatasetsInFile: 1         
SamplingInterval: 3.3333E-2 
ZeroOrderPhase: 0E0       
BeginTime: 0E0       
TransmitterFrequency: 2.9722E8  
MagneticField: 0E0       
TypeOfNucleus: 0E0       
NameOfPatient: 
DateOfExperiment: 
Spectrometer: 
AdditionalInfo: 
SignalNames: 2HG_Bal;


Signal and FFT
sig(real)	sig(imag)	fft(real)	fft(imag)
Signal 1 out of 1 in file
5E0	-2.1856E-7	3.1308E-4	1.7435E-1
4.9442E0	-6.9299E-1	3.128E-4	1.7459E-1
4.781E0	-1.3679E0	3.1263E-4	1.7483E-1
4.5148E0	-2.0077E0	3.1274E-4	1.7507E-1
4.1529E0	-2.596E0	3.1306E-4	1.7531E-1
3.7049E0	-3.1181E0	3.1335E-4	1.7555E-1
3.183E0	-3.5611E0	3.1313E-4	1.7579E-1
2.6011E0	-3.9142E0	3.1271E-4	1.7604E-1
1.9748E0	-4.169E0	3.1254E-4	1.7628E-1
1.3208E0	-4.32E0	3.122E-4	1.7652E-1
6.5638E-1	-4.3643E0	3.1236E-4	1.7676E-1
-8.3172E-4	-4.302E0	3.1322E-4	1.77E-1
-6.3359E-1	-4.1361E0	3.1346E-4	1.7724E-1
-1.2254E0	-3.8724E0	3.1289E-4	1.7748E-1
-1.761E0	-3.5192E0	3.1305E-4	1.7772E-1
-2.2267E0	-3.0874E0	3.1349E-4	1.7797E-1
-2.611E0	-2.5899E0	3.1362E-4	1.7821E-1
-2.9043E0	-2.0411E0	3.1331E-4	1.7845E-1
-3.1E0	-1.457E0	3.1347E-4	1.7869E-1
-3.194E0	-8.5426E-1	3.139E-4	1.7893E-1
-3.1851E0	-2.4997E-1	3.1381E-4	1.7917E-1
-3.0748E0	3.3885E-1	3.141E-4	1.7941E-1
-2.8677E0	8.9572E-1	3.1488E-4	1.7965E-1
-2.5706E0	1.4052E0	3.1499E-4	1.7989E-1
-2.1931E0	1.8532E0	3.1459E-4	1.8013E-1
-1.7467E0	2.2276E0	3.1471E-4	1.8038E-1
-1.245E0	2.5182E0	3.1462E-4	1.8062E-1
-7.0276E-1	2.7174E0	3.1475E-4	1.8086E-1
-1.3586E-1	2.8199E0	3.1487E-4	1.811E-1
4.3923E-1	2.8235E0	3.1492E-4	1.8134E-1
1.006E0	2.7284E0	3.1486E-4	1.8158E-1
1.5482E0	2.5378E0	3.1503E-4	1.8182E-1
2.0504E0	2.2573E0	3.1544E-4	1.8206E-1
2.4984E0	1.895E0	3.1578E-4	1.823E-1
2.8797E0	1.4614E0	3.1561E-4	1.8254E-1
3.1836E0	9.6854E-1	3.1541E-4	1.8279E-1
3.4016E0	4.3025E-1	3.1502E-4	1.8303E-1
3.5276E0	-1.3857E-1	3.1484E-4	1.8327E-1
3.5582E0	-7.2231E-1	3.1506E-4	1.8351E-1
3.4926E0	-1.305E0	3.1504E-4	1.8375E-1
3.3324E0	-1.871E0	3.1535E-4	1.8399E-1
3.0821E0	-2.4051E0	3.1557E-4	1.8423E-1
2.7485E0	-2.8931E0	3.1568E-4	1.8447E-1
2.3403E0	-3.3222E0	3.1545E-4	1.8471E-1
1.8686E0	-3.6814E0	3.1556E-4	1.8496E-1
1.3458E0	-3.9616E0	3.1543E-4	1.852E-1
7.857E-1	-4.1558E0	3.1477E-4	1.8544E-1
2.0277E-1	-4.2597E0	3.1422E-4	1.8568E-1
-3.8791E-1	-4.2713E0	3.1442E-4	1.8592E-1
-9.7129E-1	-4.191E0	3.1453E-4	1.8616E-1
-1.5327E0	-4.0219E0	3.1491E-4	1.864E-1
-2.0583E0	-3.7691E0	3.1513E-4	1.8664E-1
-2.5354E0	-3.4402E0	3.1492E-4	1.8688E-1
-2.9527E0	-3.0445E0	3.1477E-4	1.8713E-1
-3.3008E0	-2.5931E0	3.1465E-4	1.8737E-1
-3.5721E0	-2.0983E0	3.1446E-4	1.8761E-1
-3.7615E0	-1.5733E0	3.1404E-4	1.8785E-1
-3.8659E0	-1.032E0	3.144E-4	1.8809E-1
-3.8846E0	-4.8836E-1	3.1504E-4	1.8833E-1
-3.8194E0	4.3708E-2	3.15E-4	1.8857E-1
-3.674E0	5.5101E-1	3.148E-4	1.8881E-1
-3.4544E0	1.0213E0	3.1489E-4	1.8906E-1
-3.1684E0	1.4434E0	3.146E-4	1.893E-1
-2.8255E0	1.8079E0	3.1451E-4	1.8954E-1
-2.4363E0	2.1071E0	3.1477E-4	1.8978E-1
-2.0128E0	2.3352E0	3.1463E-4	1.9002E-1
-1.5672E0	2.4884E0	3.1441E-4	1.9026E-1
-1.1124E0	2.5653E0	3.1452E-4	1.905E-1
-6.6099E-1	2.5662E0	3.1479E-4	1.9074E-1
-2.2529E-1	2.4939E0	3.1481E-4	1.9098E-1
1.8317E-1	2.3528E0	3.1457E-4	1.9123E-1
5.5389E-1	2.1493E0	3.1429E-4	1.9147E-1
8.7768E-1	1.8914E0	3.1425E-4	1.9171E-1
1.1469E0	1.5882E0	3.1431E-4	1.9195E-1
1.3555E0	1.2499E0	3.1488E-4	1.9219E-1
1.4996E0	8.8748E-1	3.1529E-4	1.9243E-1
1.5767E0	5.1228E-1	3.1508E-4	1.9267E-1
1.5868E0	1.3568E-1	3.1466E-4	1.9291E-1
1.5313E0	-2.312E-1	3.1413E-4	1.9316E-1
1.4136E0	-5.7778E-1	3.1403E-4	1.934E-1
1.2389E0	-8.9433E-1	3.1483E-4	1.9364E-1
1.0136E0	-1.1722E0	3.1546E-4	1.9388E-1
7.4548E-1	-1.4041E0	3.1547E-4	1.9412E-1
4.4325E-1	-1.5842E0	3.1538E-4	1.9436E-1
1.1639E-1	-1.7081E0	3.1532E-4	1.946E-1
-2.2519E-1	-1.7734E0	3.1541E-4	1.9485E-1
-5.7144E-1	-1.7791E0	3.153E-4	1.9509E-1
-9.1245E-1	-1.7261E0	3.1532E-4	1.9533E-1
-1.2387E0	-1.6168E0	3.1506E-4	1.9557E-1
-1.5415E0	-1.4551E0	3.1471E-4	1.9581E-1
-1.8127E0	-1.2461E0	3.1498E-4	1.9605E-1
-2.0456E0	-9.9637E-1	3.1575E-4	1.9629E-1
-2.2346E0	-7.1313E-1	3.1577E-4	1.9653E-1
-2.3755E0	-4.0441E-1	3.155E-4	1.9678E-1
-2.4654E0	-7.8684E-2	3.1555E-4	1.9702E-1
-2.5032E0	2.554E-1	3.1551E-4	1.9726E-1
-2.4889E0	5.8924E-1	3.1536E-4	1.975E-1
-2.424E0	9.1453E-1	3.1532E-4	1.9774E-1
-2.3115E0	1.2235E0	3.157E-4	1.9798E-1
-2.1554E0	1.509E0	3.1571E-4	1.9822E-1
-1.9607E0	1.765E0	3.1553E-4	1.9846E-1
-1.7333E0	1.9863E0	3.1549E-4	1.9871E-1
-1.4798E0	2.1689E0	3.1547E-4	1.9895E-1
-1.2071E0	2.3099E0	3.1519E-4	1.9919E-1
-9.2232E-1	2.408E0	3.1526E-4	1.9943E-1
-6.327E-1	2.4626E0	3.1517E-4	1.9967E-1
-3.4514E-1	2.4746E0	3.1479E-4	1.9991E-1
-6.6202E-2	2.4461E0	3.1478E-4	2.0015E-1
1.9815E-1	2.3798E0	3.1529E-4	2.004E-1
4.4265E-1	2.2797E0	3.1555E-4	2.0064E-1
6.6288E-1	2.1503E0	3.1511E-4	2.0088E-1
8.5533E-1	1.9965E0	3.1529E-4	2.0112E-1
1.0175E0	1.8238E0	3.1564E-4	2.0136E-1
1.1478E0	1.6379E0	3.1529E-4	2.016E-1
1.2457E0	1.4442E0	3.1507E-4	2.0184E-1
1.3117E0	1.2482E0	3.1547E-4	2.0209E-1
1.3469E0	1.055E0	3.1554E-4	2.0233E-1
1.3535E0	8.6942E-1	3.155E-4	2.0257E-1
1.3343E0	6.9539E-1	3.1562E-4	2.0281E-1
1.2925E0	5.3639E-1	3.159E-4	2.0305E-1
1.2318E0	3.9512E-1	3.1563E-4	2.0329E-1
1.1562E0	2.7355E-1	3.1552E-4	2.0353E-1
1.0697E0	1.7283E-1	3.1569E-4	2.0377E-1
9.7651E-1	9.3378E-2	3.1556E-4	2.0402E-1
8.8044E-1	3.4899E-2	3.1547E-4	2.0426E-1
7.8514E-1	-3.5618E-3	3.1566E-4	2.045E-1
6.9386E-1	-2.3529E-2	3.156E-4	2.0474E-1
6.0938E-1	-2.7002E-2	3.1521E-4	2.0498E-1
5.3399E-1	-1.6342E-2	3.1549E-4	2.0522E-1
4.6938E-1	5.8357E-3	3.1587E-4	2.0546E-1
4.1668E-1	3.6782E-2	3.1579E-4	2.0571E-1
3.7646E-1	7.373E-2	3.1554E-4	2.0595E-1
3.4873E-1	1.14E-1	3.1566E-4	2.0619E-1
3.3301E-1	1.551E-1	3.1555E-4	2.0643E-1
3.2838E-1	1.948E-1	3.1567E-4	2.0667E-1
3.336E-1	2.3123E-1	3.1549E-4	2.0691E-1
3.4711E-1	2.6289E-1	3.1506E-4	2.0715E-1
3.6722E-1	2.8871E-1	3.1464E-4	2.074E-1
3.9215E-1	3.0805E-1	3.1504E-4	2.0764E-1
4.2011E-1	3.2069E-1	3.1552E-4	2.0788E-1
4.4945E-1	3.268E-1	3.1547E-4	2.0812E-1
4.7868E-1	3.2693E-1	3.1524E-4	2.0836E-1
5.0656E-1	3.2189E-1	3.1528E-4	2.086E-1
5.3216E-1	3.1274E-1	3.1495E-4	2.0884E-1
5.5486E-1	3.0066E-1	3.1491E-4	2.0909E-1
5.7443E-1	2.8691E-1	3.1472E-4	2.0933E-1
5.9097E-1	2.7273E-1	3.1456E-4	2.0957E-1
6.049E-1	2.5926E-1	3.1451E-4	2.0981E-1
6.1698E-1	2.4744E-1	3.1466E-4	2.1005E-1
6.2818E-1	2.3801E-1	3.1515E-4	2.1029E-1
6.3967E-1	2.3136E-1	3.1499E-4	2.1054E-1
6.5275E-1	2.2759E-1	3.15E-4	2.1078E-1
6.6873E-1	2.2643E-1	3.1524E-4	2.1102E-1
6.8887E-1	2.2723E-1	3.1508E-4	2.1126E-1
7.143E-1	2.2902E-1	3.1471E-4	2.115E-1
7.4595E-1	2.3051E-1	3.1481E-4	2.1174E-1
7.8444E-1	2.3011E-1	3.1513E-4	2.1199E-1
8.3005E-1	2.2605E-1	3.1567E-4	2.1223E-1
8.8267E-1	2.1643E-1	3.1562E-4	2.1247E-1
9.4175E-1	1.9929E-1	3.154E-4	2.1271E-1
1.0063E0	1.7272E-1	3.1527E-4	2.1295E-1
1.0749E0	1.3495E-1	3.1522E-4	2.1319E-1
1.1457E0	8.4444E-2	3.1519E-4	2.1344E-1
1.2164E0	1.9987E-2	3.151E-4	2.1368E-1
1.2845E0	-5.9235E-2	3.1534E-4	2.1392E-1
1.3473E0	-1.5356E-1	3.1577E-4	2.1416E-1
1.4018E0	-2.6281E-1	3.1567E-4	2.144E-1
1.4451E0	-3.8623E-1	3.151E-4	2.1464E-1
1.4741E0	-5.225E-1	3.1511E-4	2.1488E-1
1.4862E0	-6.6971E-1	3.1535E-4	2.1513E-1
1.4789E0	-8.254E-1	3.1532E-4	2.1537E-1
1.4501E0	-9.8662E-1	3.1522E-4	2.1561E-1
1.3983E0	-1.15E0	3.1538E-4	2.1585E-1
1.3224E0	-1.3117E0	3.158E-4	2.1609E-1
1.2221E0	-1.4679E0	3.1584E-4	2.1633E-1
1.0977E0	-1.6143E0	3.1599E-4	2.1658E-1
9.5029E-1	-1.7468E0	3.1593E-4	2.1682E-1
7.8172E-1	-1.8615E0	3.1541E-4	2.1706E-1
5.9451E-1	-1.9546E0	3.1527E-4	2.173E-1
3.9185E-1	-2.0227E0	3.1561E-4	2.1754E-1
1.7759E-1	-2.0631E0	3.1628E-4	2.1779E-1
-4.3928E-2	-2.0735E0	3.1652E-4	2.1803E-1
-2.6794E-1	-2.0525E0	3.1629E-4	2.1827E-1
-4.8938E-1	-1.9994E0	3.1644E-4	2.1851E-1
-7.0304E-1	-1.9144E0	3.1651E-4	2.1875E-1
-9.0371E-1	-1.7985E0	3.1619E-4	2.1899E-1
-1.0864E0	-1.6539E0	3.1605E-4	2.1923E-1
-1.2462E0	-1.4832E0	3.1641E-4	2.1948E-1
-1.379E0	-1.2902E0	3.1698E-4	2.1972E-1
-1.4811E0	-1.0794E0	3.1692E-4	2.1996E-1
-1.5496E0	-8.5557E-1	3.1698E-4	2.202E-1
-1.5824E0	-6.2442E-1	3.174E-4	2.2044E-1
-1.5782E0	-3.9182E-1	3.1733E-4	2.2068E-1
-1.5371E0	-1.6386E-1	3.1704E-4	2.2093E-1
-1.4598E0	5.3354E-2	3.1698E-4	2.2117E-1
-1.3483E0	2.5384E-1	3.169E-4	2.2141E-1
-1.2055E0	4.3195E-1	3.1718E-4	2.2165E-1
-1.0353E0	5.8254E-1	3.1721E-4	2.2189E-1
-8.4236E-1	7.0114E-1	3.1749E-4	2.2213E-1
-6.3224E-1	7.8407E-1	3.1712E-4	2.2237E-1
-4.1101E-1	8.286E-1	3.1662E-4	2.2262E-1
-1.852E-1	8.3301E-1	3.1645E-4	2.2286E-1
3.8359E-2	7.9672E-1	3.1648E-4	2.231E-1
2.5279E-1	7.2027E-1	3.1645E-4	2.2334E-1
4.5132E-1	6.0539E-1	3.1683E-4	2.2358E-1
6.2747E-1	4.5492E-1	3.1678E-4	2.2383E-1
7.7529E-1	2.7279E-1	3.1662E-4	2.2407E-1
8.895E-1	6.3921E-2	3.1622E-4	2.2431E-1
9.6567E-1	-1.659E-1	3.1572E-4	2.2455E-1
1.0003E0	-4.1017E-1	3.1551E-4	2.2479E-1
9.9122E-1	-6.6184E-1	3.1569E-4	2.2504E-1
9.3713E-1	-9.1347E-1	3.1602E-4	2.2528E-1
8.3819E-1	-1.1575E0	3.1623E-4	2.2552E-1
6.9578E-1	-1.3864E0	3.165E-4	2.2576E-1
5.1251E-1	-1.593E0	3.1651E-4	2.26E-1
2.9221E-1	-1.7703E0	3.1623E-4	2.2624E-1
3.9813E-2	-1.9125E0	3.1573E-4	2.2649E-1
-2.3877E-1	-2.0141E0	3.1574E-4	2.2673E-1
-5.3676E-1	-2.0709E0	3.1598E-4	2.2697E-1
-8.4675E-1	-2.0799E0	3.1599E-4	2.2721E-1
-1.1608E0	-2.0392E0	3.1625E-4	2.2745E-1
-1.4709E0	-1.9482E0	3.1681E-4	2.277E-1
-1.7687E0	-1.8079E0	3.1708E-4	2.2794E-1
-2.0463E0	-1.6203E0	3.1696E-4	2.2818E-1
-2.2961E0	-1.389E0	3.1665E-4	2.2842E-1
-2.5111E0	-1.1186E0	3.1644E-4	2.2866E-1
-2.6853E0	-8.1492E-1	3.1644E-4	2.289E-1
-2.8135E0	-4.8474E-1	3.165E-4	2.2915E-1
-2.8917E0	-1.3558E-1	3.1717E-4	2.2939E-1
-2.9172E0	2.2441E-1	3.1778E-4	2.2963E-1
-2.8887E0	5.8673E-1	3.1754E-4	2.2987E-1
-2.8062E0	9.4275E-1	3.1694E-4	2.3011E-1
-2.6712E0	1.2839E0	3.1687E-4	2.3036E-1
-2.4865E0	1.6019E0	3.1735E-4	2.306E-1
-2.2563E0	1.8892E0	3.1755E-4	2.3084E-1
-1.986E0	2.1387E0	3.175E-4	2.3108E-1
-1.682E0	2.3446E0	3.1775E-4	2.3132E-1
-1.3516E0	2.5019E0	3.1791E-4	2.3156E-1
-1.003E0	2.607E0	3.1782E-4	2.3181E-1
-6.446E-1	2.6578E0	3.1767E-4	2.3205E-1
-2.8529E-1	2.6532E0	3.1795E-4	2.3229E-1
6.6098E-2	2.594E0	3.1815E-4	2.3253E-1
4.0093E-1	2.4822E0	3.1792E-4	2.3277E-1
